# Macroscopic dielectric function obtained with the BS equation.
#  RPA L0 with KS energies and KS wavefunctions     LOCAL FIELD EFFECTS INCLUDED
# RESONANT-ONLY calculation
# Coulomb term constructed with full W(G1,G2)
# Scissor operator energy =  0.8000 [eV]
# nstates included in the diagonalization = 384
# npweps  = 51
# npwwfn  = 137
# nbands  = 8
# loband  = 2
# nkibz   = 2
# nkbz    = 32
# Lorentzian broadening =  0.1000 [eV]
# List of q-points for the optical limit:
# q =  0.938821, 0.000000, 0.000000, [Reduced coords] 
# q =  0.000000, 0.938821, 0.000000, [Reduced coords] 
# q =  0.000000, 0.000000, 0.938821, [Reduced coords] 
# q =  0.000000, 0.813043, 0.813043, [Reduced coords] 
# q =  0.813043, 0.000000, 0.813043, [Reduced coords] 
# q =  0.813043, 0.813043, 0.000000, [Reduced coords] 
# omega [eV]    RE(eps(q=1)) IM(eps(q=1) RE(eps(q=2) ) ... DOS   IDOS
  0.000   21.7288    0.0000   21.7329    0.0000   21.7315    0.0000   21.7286    0.0000   21.7308    0.0000   21.7332    0.0000    0.0000    0.0000
  0.100   21.7442    0.0309   21.7483    0.0310   21.7470    0.0310   21.7440    0.0309   21.7462    0.0310   21.7486    0.0310    0.0000    0.0000
  0.200   21.7906    0.0622   21.7947    0.0622   21.7934    0.0622   21.7904    0.0622   21.7926    0.0622   21.7950    0.0622    0.0000    0.0000
  0.300   21.8684    0.0940   21.8726    0.0941   21.8712    0.0941   21.8682    0.0940   21.8705    0.0941   21.8728    0.0941    0.0000    0.0000
  0.400   21.9784    0.1268   21.9826    0.1269   21.9812    0.1269   21.9781    0.1268   21.9805    0.1269   21.9829    0.1269    0.0000    0.0000
  0.500   22.1216    0.1609   22.1259    0.1610   22.1245    0.1609   22.1214    0.1609   22.1237    0.1609   22.1262    0.1610    0.0000    0.0000
  0.600   22.2996    0.1966   22.3040    0.1967   22.3025    0.1967   22.2993    0.1966   22.3018    0.1967   22.3043    0.1967    0.0000    0.0000
  0.700   22.5141    0.2344   22.5186    0.2345   22.5171    0.2345   22.5139    0.2344   22.5164    0.2345   22.5189    0.2345    0.0000    0.0000
  0.800   22.7675    0.2748   22.7722    0.2749   22.7706    0.2749   22.7673    0.2748   22.7698    0.2749   22.7725    0.2749    0.0000    0.0000
  0.900   23.0626    0.3183   23.0674    0.3185   23.0658    0.3184   23.0624    0.3183   23.0650    0.3184   23.0677    0.3185    0.0000    0.0000
  1.000   23.4029    0.3656   23.4078    0.3658   23.4062    0.3658   23.4026    0.3656   23.4053    0.3657   23.4081    0.3658    0.0000    0.0000
  1.100   23.7924    0.4176   23.7975    0.4178   23.7958    0.4177   23.7921    0.4176   23.7949    0.4177   23.7978    0.4178    0.0000    0.0000
  1.200   24.2361    0.4751   24.2415    0.4753   24.2397    0.4753   24.2359    0.4751   24.2388    0.4752   24.2418    0.4753    0.0000    0.0000
  1.300   24.7402    0.5394   24.7459    0.5397   24.7440    0.5396   24.7400    0.5394   24.7431    0.5395   24.7462    0.5397    0.0000    0.0000
  1.400   25.3121    0.6119   25.3181    0.6122   25.3161    0.6121   25.3118    0.6119   25.3150    0.6121   25.3184    0.6122    0.0000    0.0000
  1.500   25.9606    0.6945   25.9670    0.6949   25.9648    0.6948   25.9603    0.6945   25.9637    0.6947   25.9673    0.6949    0.0000    0.0000
  1.600   26.6969    0.7897   26.7037    0.7901   26.7014    0.7900   26.6966    0.7897   26.7002    0.7899   26.7040    0.7901    0.0000    0.0000
  1.700   27.5346    0.9004   27.5419    0.9010   27.5395    0.9008   27.5343    0.9004   27.5382    0.9007   27.5423    0.9010    0.0000    0.0000
  1.800   28.4910    1.0310   28.4989    1.0316   28.4963    1.0314   28.4907    1.0310   28.4949    1.0313   28.4992    1.0316    0.0000    0.0000
  1.900   29.5879    1.1868   29.5964    1.1875   29.5936    1.1873   29.5876    1.1868   29.5921    1.1871   29.5968    1.1875    0.0000    0.0000
  2.000   30.8532    1.3755   30.8626    1.3764   30.8595    1.3761   30.8529    1.3755   30.8579    1.3759   30.8629    1.3764    0.0000    0.0000
  2.100   32.3238    1.6079   32.3341    1.6089   32.3306    1.6086   32.3234    1.6079   32.3289    1.6084   32.3344    1.6089    0.0000    0.0000
  2.200   34.0484    1.8994   34.0598    1.9007   34.0560    1.9003   34.0481    1.8994   34.0541    1.9001   34.0602    1.9007    0.0000    0.0000
  2.300   36.0938    2.2734   36.1066    2.2749   36.1023    2.2744   36.0934    2.2734   36.1001    2.2741   36.1070    2.2749    0.0000    0.0000
  2.400   38.5533    2.7655   38.5678    2.7674   38.5629    2.7668   38.5529    2.7655   38.5605    2.7664   38.5682    2.7674    0.0000    0.0000
  2.500   41.5616    3.4336   41.5782    3.4361   41.5727    3.4353   41.5612    3.4336   41.5699    3.4349   41.5786    3.4361    0.0000    0.0000
  2.600   45.3203    4.3763   45.3396    4.3795   45.3331    4.3784   45.3199    4.3762   45.3299    4.3779   45.3400    4.3795    0.0000    0.0000
  2.700   50.1441    5.7720   50.1671    5.7763   50.1594    5.7749   50.1437    5.7719   50.1555    5.7741   50.1675    5.7764    0.0000    0.0000
  2.800   56.5503    7.9721   56.5781    7.9784   56.5688    7.9763   56.5498    7.9721   56.5641    7.9753   56.5786    7.9785    0.0003    0.0000
  2.900   65.4362   11.7449   65.4710   11.7546   65.4593   11.7513   65.4357   11.7448   65.4535   11.7498   65.4715   11.7547    0.0395    0.0001
  3.000   78.4309   19.0196   78.4763   19.0363   78.4611   19.0307   78.4303   19.0194   78.4536   19.0280   78.4769   19.0364    1.8307    0.0069
  3.100   98.2945   35.6251   98.3561   35.6593   98.3354   35.6477   98.2936   35.6245   98.3252   35.6423   98.3568   35.6596   33.7041    0.1307
  3.200  124.1530   82.9398  124.2274   83.0288  124.2025   82.9985  124.1520   82.9381  124.1901   82.9847  124.2285   83.0295  263.4963    1.0991
  3.300   74.3334  200.0254   74.2796  200.1862   74.2989  200.1319   74.3348  200.0217   74.3049  200.1060   74.2811  200.1891  941.0240    4.5573
  3.400  -78.0139  139.4411  -78.0711  139.4464  -78.0518  139.4457  -78.0102  139.4401  -78.0426  139.4422  -78.0746  139.4500 1566.5774   10.3143
  3.500  -66.6193   55.0359  -66.6284   55.0465  -66.6256   55.0433  -66.6155   55.0361  -66.6234   55.0406  -66.6330   55.0472 1153.7082   14.5541
  3.600  -40.8999   27.7838  -40.8914   27.8005  -40.8944   27.7950  -40.8954   27.7848  -40.8953   27.7919  -40.8965   27.7998  349.9399   15.8401
  3.700  -22.4164   17.9117  -22.3894   17.9355  -22.3985   17.9276  -22.4106   17.9137  -22.4027   17.9234  -22.3956   17.9336   41.5850   15.9930
  3.800   -8.1604   14.3248   -8.1072   14.3631   -8.1250   14.3503   -8.1522   14.3288   -8.1337   14.3438   -8.1158   14.3592    1.8914   15.9999
  3.900    4.7121   14.2625    4.8069   14.3334    4.7752   14.3098    4.7247   14.2705    4.7595   14.2978    4.7939   14.3254    0.5458   16.0019
  4.000   18.5954   18.0810   18.7608   18.2370   18.7055   18.1849   18.6159   18.0996   18.6780   18.1587   18.7399   18.2183   13.2883   16.0507
  4.100   35.9766   30.2897   36.2390   30.7159   36.1514   30.5733   36.0081   30.3420   36.1077   30.5018   36.2071   30.6630  133.4666   16.5412
  4.200   52.6405   69.3070   52.5253   70.6563   52.5652   70.2048   52.6216   69.4751   52.5857   69.9790   52.5453   70.4862  576.4245   18.6596
  4.300  -10.4290  135.2810  -13.2809  135.0244  -12.3286  135.1162  -10.8015  135.2351  -11.8557  135.1621  -12.9062  135.0765 1375.5478   23.7146
  4.400  -74.2594   69.0215  -74.1425   67.5213  -74.1844   68.0209  -74.2336   68.8127  -74.2022   68.2691  -74.1712   67.7295 2118.5488   31.5001
  4.500  -58.4627   29.2830  -58.0444   28.8011  -58.1841   28.9608  -58.3954   29.2144  -58.2534   29.0418  -58.1120   28.8687 1684.3731   37.6901
  4.600  -42.4514   16.4707  -42.1646   16.2869  -42.2602   16.3479  -42.4026   16.4447  -42.3080   16.3788  -42.2134   16.3126  557.7365   39.7397
  4.700  -30.6021   12.2639  -30.4035   12.1799  -30.4697   12.2078  -30.5656   12.2529  -30.5028   12.2219  -30.4400   12.1907  127.8295   40.2095
  4.800  -20.7486   13.0764  -20.5999   13.0371  -20.6496   13.0501  -20.7192   13.0742  -20.6743   13.0567  -20.6295   13.0392  512.1712   42.0917
  4.900  -14.6343   22.0120  -14.5190   22.0053  -14.5575   22.0073  -14.6177   22.0166  -14.5766   22.0085  -14.5358   22.0006 1945.5479   49.2414
  5.000  -26.9678   30.9211  -26.8944   30.9302  -26.9186   30.9270  -26.9427   30.9171  -26.9307   30.9257  -26.9195   30.9339 3194.3245   60.9804
  5.100  -36.0392   16.7309  -35.9879   16.7311  -36.0050   16.7311  -36.0273   16.7392  -36.0136   16.7312  -35.9997   16.7226 2215.8144   69.1233
  5.200  -30.6659    8.0063  -30.6209    8.0033  -30.6359    8.0043  -30.6571    8.0090  -30.6435    8.0049  -30.6297    8.0005  671.4946   71.5910
  5.300  -25.6547    4.9142  -25.6135    4.9116  -25.6272    4.9125  -25.6453    4.9155  -25.6342    4.9129  -25.6229    4.9103  102.0567   71.9661
  5.400  -21.8725    3.5992  -21.8335    3.5981  -21.8465    3.5985  -21.8622    3.6005  -21.8530    3.5987  -21.8438    3.5968   11.4466   72.0081
  5.500  -18.8141    3.0516  -18.7757    3.0529  -18.7885    3.0525  -18.8025    3.0537  -18.7949    3.0523  -18.7873    3.0508   54.1617   72.2072
  5.600  -16.0953    3.1447  -16.0552    3.1508  -16.0686    3.1487  -16.0816    3.1488  -16.0753    3.1477  -16.0689    3.1466  464.0614   73.9126
  5.700  -13.7177    4.5595  -13.6749    4.5784  -13.6892    4.5721  -13.7014    4.5695  -13.6963    4.5690  -13.6912    4.5684 1665.7192   80.0340
  5.800  -14.9668    7.5060  -14.9412    7.5499  -14.9497    7.5352  -14.9560    7.5294  -14.9540    7.5279  -14.9520    7.5265 2462.3071   89.0828
  5.900  -17.2072    4.5391  -17.2157    4.5678  -17.2129    4.5582  -17.2163    4.5568  -17.2115    4.5535  -17.2066    4.5501 1480.9093   94.5250
  6.000  -15.5742    2.3616  -15.5814    2.3720  -15.5790    2.3685  -15.5827    2.3683  -15.5778    2.3668  -15.5729    2.3653  362.7694   95.8582
  6.100  -13.9664    1.5744  -13.9696    1.5788  -13.9685    1.5773  -13.9721    1.5774  -13.9680    1.5766  -13.9639    1.5757   36.9465   95.9940
  6.200  -12.6821    1.2131  -12.6830    1.2153  -12.6827    1.2146  -12.6860    1.2148  -12.6825    1.2142  -12.6791    1.2136    1.6380   96.0000
  6.300  -11.6165    1.0147  -11.6160    1.0158  -11.6162    1.0155  -11.6192    1.0157  -11.6162    1.0153  -11.6133    1.0148    1.5756   96.0058
  6.400  -10.6917    0.9057  -10.6905    0.9064  -10.6909    0.9062  -10.6936    0.9065  -10.6911    0.9061  -10.6886    0.9056   31.7746   96.1226
  6.500   -9.8619    0.8918   -9.8602    0.8922   -9.8608    0.8921   -9.8632    0.8925   -9.8610    0.8920   -9.8589    0.8916  243.9442   97.0190
  6.600   -9.2200    1.0627   -9.2182    1.0629   -9.2188    1.0629   -9.2209    1.0634   -9.2191    1.0628   -9.2172    1.0622  706.0210   99.6136
  6.700   -8.9850    0.9699   -8.9832    0.9699   -8.9838    0.9699   -8.9861    0.9706   -8.9841    0.9699   -8.9821    0.9692  783.9062  102.4944
  6.800   -8.4314    0.6926   -8.4295    0.6926   -8.4302    0.6926   -8.4323    0.6930   -8.4305    0.6926   -8.4286    0.6922  343.4362  103.7565
  6.900   -7.8478    0.5781   -7.8461    0.5779   -7.8467    0.5780   -7.8485    0.5783   -7.8470    0.5780   -7.8454    0.5777   61.5556  103.9827
  7.000   -7.3141    0.5232   -7.3125    0.5230   -7.3130    0.5231   -7.3146    0.5233   -7.3133    0.5231   -7.3119    0.5229    7.4986  104.0103
  7.100   -6.8154    0.4984   -6.8141    0.4980   -6.8145    0.4981   -6.8159    0.4984   -6.8148    0.4982   -6.8136    0.4980   51.3717  104.1991
  7.200   -6.3340    0.5072   -6.3331    0.5066   -6.3334    0.5068   -6.3345    0.5071   -6.3335    0.5069   -6.3326    0.5067  394.7915  105.6499
  7.300   -5.8610    0.5964   -5.8605    0.5949   -5.8607    0.5954   -5.8615    0.5959   -5.8608    0.5957   -5.8601    0.5955 1416.2615  110.8546
  7.400   -5.5666    0.8829   -5.5648    0.8794   -5.5654    0.8806   -5.5662    0.8815   -5.5657    0.8812   -5.5653    0.8809 2372.0322  119.5716
  7.500   -5.6372    0.7699   -5.6335    0.7683   -5.6348    0.7688   -5.6360    0.7696   -5.6354    0.7691   -5.6348    0.7685 1727.5193  125.9201
  7.600   -5.2720    0.5137   -5.2689    0.5130   -5.2699    0.5132   -5.2710    0.5136   -5.2704    0.5133   -5.2699    0.5130  506.4902  127.7815
  7.700   -4.8515    0.4320   -4.8488    0.4317   -4.8497    0.4318   -4.8505    0.4321   -4.8501    0.4319   -4.8498    0.4316   57.0350  127.9911
  7.800   -4.4478    0.4138   -4.4455    0.4135   -4.4463    0.4136   -4.4468    0.4139   -4.4467    0.4137   -4.4465    0.4135    3.4943  128.0039
  7.900   -4.0425    0.4351   -4.0404    0.4349   -4.0411    0.4350   -4.0414    0.4352   -4.0415    0.4350   -4.0415    0.4348   30.2935  128.1152
  8.000   -3.6114    0.5186   -3.6094    0.5185   -3.6101    0.5185   -3.6102    0.5188   -3.6104    0.5185   -3.6107    0.5183  335.5037  129.3482
  8.100   -3.1630    0.7788   -3.1612    0.7789   -3.1618    0.7788   -3.1616    0.7791   -3.1621    0.7788   -3.1626    0.7786 1533.7040  134.9844
  8.200   -3.1506    1.3058   -3.1495    1.3061   -3.1499    1.3060   -3.1491    1.3063   -3.1500    1.3060   -3.1510    1.3056 3014.7238  146.0634
  8.300   -3.3560    1.0036   -3.3557    1.0034   -3.3558    1.0034   -3.3545    1.0042   -3.3558    1.0035   -3.3572    1.0027 2663.3475  155.8510
  8.400   -2.8482    0.7609   -2.8483    0.7598   -2.8482    0.7602   -2.8463    0.7615   -2.8482    0.7604   -2.8500    0.7592 1462.8115  161.2267
  8.500   -2.2122    0.8904   -2.2125    0.8873   -2.2123    0.8884   -2.2098    0.8912   -2.2123    0.8889   -2.2148    0.8865 2309.6667  169.7146
  8.600   -1.6762    1.4552   -1.6703    1.4507   -1.6722    1.4522   -1.6724    1.4574   -1.6732    1.4530   -1.6740    1.4486 4818.2897  187.4215
  8.700   -1.8187    1.9655   -1.8185    1.9727   -1.8186    1.9703   -1.8187    1.9709   -1.8186    1.9691   -1.8186    1.9674 5797.1204  208.7255
  8.800   -1.3848    2.1043   -1.3898    2.0974   -1.3881    2.0997   -1.3847    2.1037   -1.3872    2.1009   -1.3900    2.0979 4729.8578  226.1074
  8.900   -1.0535    2.7237   -1.0498    2.7179   -1.0510    2.7199   -1.0498    2.7287   -1.0516    2.7209   -1.0534    2.7129 3514.5523  239.0231
  9.000   -0.1240    4.3927   -0.1196    4.3819   -0.1211    4.3857   -0.1241    4.3979   -0.1218    4.3874   -0.1194    4.3768 2469.4850  248.0983
  9.100   -3.5031    8.0394   -3.4759    8.0420   -3.4852    8.0412   -3.5061    8.0445   -3.4898    8.0407   -3.4731    8.0370 1337.7472  253.0145
  9.200   -7.1194    4.1726   -7.1190    4.1869   -7.1192    4.1821   -7.1229    4.1746   -7.1192    4.1796   -7.1156    4.1849  511.8111  254.8953
  9.300   -6.0993    1.8088   -6.1019    1.8135   -6.1010    1.8119   -6.1019    1.8098   -6.1006    1.8111   -6.0993    1.8125  186.6040  255.5811
  9.400   -5.0812    1.0240   -5.0825    1.0258   -5.0821    1.0252   -5.0832    1.0245   -5.0818    1.0249   -5.0805    1.0252   87.8359  255.9039
  9.500   -4.3344    0.7159   -4.3348    0.7168   -4.3347    0.7165   -4.3360    0.7163   -4.3346    0.7163   -4.3332    0.7164   23.5918  255.9906
  9.600   -3.7372    0.5950   -3.7370    0.5955   -3.7371    0.5953   -3.7384    0.5953   -3.7371    0.5952   -3.7358    0.5952    2.5965  256.0001
  9.700   -3.1964    0.5923   -3.1959    0.5927   -3.1961    0.5925   -3.1974    0.5926   -3.1962    0.5925   -3.1949    0.5924    5.5526  256.0205
  9.800   -2.6391    0.7503   -2.6382    0.7508   -2.6385    0.7506   -2.6398    0.7507   -2.6386    0.7506   -2.6375    0.7504   93.2860  256.3491
  9.900   -2.0926    1.3400   -2.0914    1.3411   -2.0918    1.3407   -2.0932    1.3409   -2.0920    1.3405   -2.0908    1.3401  656.3450  259.1631
 10.000   -2.7058    2.4738   -2.7051    2.4753   -2.7053    2.4748   -2.7074    2.4747   -2.7054    2.4746   -2.7035    2.4744 1921.0881  261.8105
