# Macroscopic dielectric function obtained with the BS equation.
#  RPA L0 with KS energies and KS wavefunctions     LOCAL FIELD EFFECTS INCLUDED
# RESONANT-ONLY calculation
# Coulomb term constructed with full W(G1,G2)
# Scissor operator energy =  0.8000 [eV]
# Tolerance =  0.0200 0.0200
# npweps  = 51
# npwwfn  = 137
# nbands  = 8
# loband  = 2
# nkibz   = 8
# nkbz    = 8
# Lorentzian broadening =  0.1000 [eV]
# List of q-points for the optical limit:
# q =  0.938821, 0.000000, 0.000000, [Reduced coords] 
# q =  0.000000, 0.938821, 0.000000, [Reduced coords] 
# q =  0.000000, 0.000000, 0.938821, [Reduced coords] 
# q =  0.000000, 0.813043, 0.813043, [Reduced coords] 
# q =  0.813043, 0.000000, 0.813043, [Reduced coords] 
# q =  0.813043, 0.813043, 0.000000, [Reduced coords] 
# omega [eV]    RE(eps(q=1)) IM(eps(q=1) RE(eps(q=2) ) ... 
  0.000   20.1452    0.0000   19.7804    0.0000   19.2405    0.0000   17.5911    0.0000   18.0389    0.0000   18.3897    0.0000
  0.100   20.1598    0.0292   19.7945    0.0283   19.2540    0.0272   17.6031    0.0240   18.0513    0.0250   18.4025    0.0259
  0.200   20.2035    0.0586   19.8370    0.0569   19.2949    0.0547   17.6391    0.0483   18.0888    0.0502   18.4413    0.0520
  0.300   20.2768    0.0886   19.9082    0.0861   19.3633    0.0828   17.6995    0.0730   18.1515    0.0759   18.5064    0.0786
  0.400   20.3804    0.1196   20.0089    0.1161   19.4601    0.1117   17.7849    0.0985   18.2403    0.1024   18.5983    0.1061
  0.500   20.5155    0.1518   20.1401    0.1474   19.5863    0.1417   17.8962    0.1249   18.3559    0.1299   18.7181    0.1346
  0.600   20.6835    0.1856   20.3031    0.1802   19.7430    0.1732   18.0343    0.1526   18.4996    0.1587   18.8670    0.1645
  0.700   20.8860    0.2214   20.4998    0.2150   19.9320    0.2066   18.2008    0.1819   18.6727    0.1892   19.0465    0.1962
  0.800   21.1254    0.2598   20.7322    0.2522   20.1553    0.2422   18.3975    0.2132   18.8772    0.2218   19.2586    0.2300
  0.900   21.4045    0.3012   21.0031    0.2923   20.4155    0.2808   18.6264    0.2469   19.1154    0.2569   19.5056    0.2666
  1.000   21.7266    0.3464   21.3156    0.3361   20.7157    0.3227   18.8903    0.2835   19.3901    0.2952   19.7906    0.3064
  1.100   22.0958    0.3962   21.6738    0.3843   21.0595    0.3688   19.1923    0.3237   19.7045    0.3372   20.1170    0.3501
  1.200   22.5171    0.4515   22.0824    0.4378   21.4516    0.4200   19.5363    0.3682   20.0629    0.3837   20.4892    0.3986
  1.300   22.9965    0.5135   22.5471    0.4978   21.8975    0.4774   19.9271    0.4180   20.4701    0.4358   20.9123    0.4530
  1.400   23.5414    0.5839   23.0752    0.5657   22.4039    0.5423   20.3701    0.4741   20.9321    0.4946   21.3927    0.5145
  1.500   24.1608    0.6645   23.6753    0.6436   22.9790    0.6166   20.8726    0.5381   21.4565    0.5618   21.9383    0.5848
  1.600   24.8660    0.7579   24.3582    0.7337   23.6331    0.7025   21.4431    0.6119   22.0522    0.6393   22.5585    0.6660
  1.700   25.6710    0.8674   25.1373    0.8392   24.3791    0.8031   22.0923    0.6980   22.7307    0.7299   23.2656    0.7611
  1.800   26.5937    0.9976   26.0298    0.9646   25.2329    0.9224   22.8337    0.7997   23.5064    0.8371   24.0747    0.8737
  1.900   27.6569    1.1546   27.0577    1.1157   26.2155    1.0660   23.6846    0.9215   24.3976    0.9659   25.0052    1.0092
  2.000   28.8905    1.3471   28.2495    1.3009   27.3538    1.2418   24.6676    1.0700   25.4283    1.1230   26.0827    1.1749
  2.100   30.3344    1.5880   29.6434    1.5323   28.6839    1.4611   25.8122    1.2542   26.6302    1.3184   27.3407    1.3813
  2.200   32.0429    1.8960   31.2915    1.8280   30.2548    1.7410   27.1586    1.4879   28.0465    1.5669   28.8253    1.6443
  2.300   34.0920    2.3008   33.2665    2.2163   32.1350    2.1080   28.7629    1.7922   29.7371    1.8915   30.6005    1.9885
  2.400   36.5922    2.8509   35.6740    2.7436   34.4238    2.6056   30.7054    2.2016   31.7887    2.3294   32.7587    2.4540
  2.500   39.7095    3.6303   38.6729    3.4904   37.2704    3.3090   33.1059    2.7752   34.3306    2.9450   35.4384    3.1103
  2.600   43.7059    4.7961   42.5139    4.6072   40.9099    4.3589   36.1520    3.6225   37.5658    3.8579   38.8577    4.0865
  2.700   49.0174    6.6714   47.6142    6.4048   45.7333    6.0455   40.1527    4.9669   41.8302    5.3128   43.3774    5.6479
  2.800   56.4093   10.0127   54.7062    9.6132   52.4262    9.0482   45.6453    7.3266   47.7091    7.8780   49.6286    8.4139
  2.900   67.2204   16.9229   65.0662   16.2735   62.1886   15.2613   53.5639   12.1308   56.2245   13.1244   58.7116   14.1061
  3.000   82.6009   34.5917   79.6849   33.3979   76.0513   31.1895   64.7170   24.2252   68.2946   26.3925   71.5656   28.6242
  3.100   84.2504   83.1971   79.9728   79.7603   76.9812   75.5885   67.0200   56.6251   70.7130   62.8105   72.5980   68.7846
  3.200   19.8099  104.8311   19.0902   98.8709   18.6848   90.6185   28.3944   75.5051   22.9926   80.0939   21.9037   80.4684
  3.300   -3.6577   68.2457   -3.2141   62.1903   -1.8689   59.1478    6.1925   52.5014    7.9874   54.1293   10.3519   58.2610
  3.400   -0.3613   55.4738    6.6701   47.0039    7.2860   42.1957   13.2910   40.4035   11.1096   48.6764    9.4054   56.3344
  3.500    4.9537   46.1052   13.2123   51.2220   17.3060   44.6062   18.0165   43.1497    9.7028   46.3657    4.9782   47.8184
  3.600    5.9702   57.0582    5.7742   58.6848   15.9344   57.3210   14.0444   54.0872    7.1114   46.9720    7.5423   51.1327
  3.700   -7.2029   47.4831   -6.9551   48.8160   -2.4205   55.3863    0.7995   46.4903    3.6768   42.6366   -5.9244   49.0844
  3.800    0.1933   41.9804    1.4455   42.1377   -1.2971   47.6423    5.1606   43.6880    6.8084   45.0018   -3.6666   38.3397
  3.900   -1.6439   49.7594   -2.1596   51.3870   -3.0426   51.8191   -0.4789   49.4403   -0.7550   49.6816    0.5881   42.3520
  4.000   -7.4971   46.5901   -9.2900   45.6048  -10.1355   44.8218   -6.1477   41.4988   -5.9958   42.2769   -4.4669   40.7982
  4.100   -3.6180   48.0481   -5.0658   47.1916   -5.7839   44.7417   -2.9668   40.4701   -3.3584   41.5924   -0.9170   40.8911
  4.200  -12.5107   54.6930  -13.5487   49.6194  -16.6535   49.6840   -8.4379   45.3886   -8.7018   45.4342   -7.2964   48.2969
  4.300  -25.7080   54.1732  -19.7488   48.2916  -21.2023   45.1482  -10.8284   47.1404  -13.0728   49.4102  -15.7742   52.4416
  4.400  -41.5805   42.6721  -35.1411   48.2097  -27.4038   41.9479  -24.0821   47.5070  -25.0271   45.7766  -31.3908   46.3847
  4.500  -39.4413   27.0573  -38.3145   28.6835  -35.3647   29.7496  -33.8372   33.4073  -35.2909   33.8912  -35.2843   31.1645
  4.600  -36.1570   16.1769  -35.8454   19.6553  -31.3641   21.9332  -32.9271   25.2228  -33.6771   22.8332  -35.8834   20.9518
  4.700  -28.3264   10.7722  -29.5870   12.5008  -29.0057   16.1566  -30.3794   15.4027  -29.3228   15.3546  -29.5291   12.4294
  4.800  -23.8037    9.5542  -24.9298    9.3510  -25.7913   10.7313  -25.4788   10.1611  -25.4081   10.1843  -24.5397    9.0043
  4.900  -19.1855    7.9307  -19.3481    7.6219  -19.7639    8.3927  -19.5797    7.7624  -19.4753    7.8108  -19.1476    7.1824
  5.000  -15.2082   10.2709  -14.9805    9.7030  -15.7433   10.4648  -15.3088    9.1617  -15.1563    9.0867  -15.2247    8.6544
  5.100  -16.2911   12.5804  -15.1829   12.8514  -16.9268   12.8063  -15.3718   11.2952  -14.7917   11.9261  -14.5189   10.0702
  5.200  -17.9393   10.2692  -17.8349   10.8646  -17.6364    9.3099  -15.7795    8.5086  -15.7765    9.5845  -14.3061    9.5725
  5.300  -16.4446    9.8495  -16.5701    9.7851  -15.8769    9.0243  -12.8027    8.9039  -14.2750   10.3484  -14.5968   11.0895
  5.400  -17.0047    7.5760  -16.1501    7.4140  -14.9044    7.6450  -14.1294    9.3078  -15.2603    8.5499  -15.3941    8.3105
  5.500  -14.6252    7.0936  -13.8284    7.8950  -14.6245    8.2828  -13.4555    9.0960  -14.3777    8.2214  -14.8203    7.9738
  5.600  -15.2840    6.6136  -15.2208    7.2960  -13.9849    6.6862  -14.7002    7.3934  -13.7507    6.7833  -14.0647    6.0954
  5.700  -13.6289    5.6866  -13.6193    6.2844  -13.9724    6.6486  -13.8284    6.4367  -13.7447    6.7136  -13.4334    5.6042
  5.800  -14.2045    5.5981  -14.1911    5.8955  -12.8602    5.5554  -13.2152    5.0040  -13.0526    5.7175  -12.0114    5.0942
  5.900  -13.3479    4.1279  -13.4898    4.8154  -13.5507    5.7027  -12.8865    4.3279  -13.5739    4.5630  -12.8091    5.2401
  6.000  -12.5605    3.1784  -12.9033    3.4492  -12.9042    3.6786  -11.6265    3.0302  -12.0552    2.9982  -12.0334    3.4529
  6.100  -11.2153    3.0140  -11.6739    3.2185  -12.1256    3.1502  -10.8080    3.1934  -11.0550    3.0593  -11.3634    3.1610
  6.200  -11.3806    2.8107  -11.5620    2.4580  -11.1893    2.0777  -10.5647    2.1514  -10.6392    2.2046  -10.6364    2.1834
  6.300  -10.5159    1.7080  -10.3976    1.6135  -10.1163    1.7729   -9.3927    1.5142   -9.6932    1.7487   -9.8286    1.7355
  6.400   -9.4340    1.4169   -9.3635    1.4716   -9.3219    1.3452   -8.5019    1.2947   -8.8482    1.2845   -8.9079    1.2370
  6.500   -8.7336    1.2072   -8.7079    1.2154   -8.3746    1.1451   -7.6222    1.0997   -7.9082    1.1158   -8.0341    1.0866
  6.600   -7.8855    1.0080   -7.8308    0.9962   -7.6242    1.0346   -6.8910    1.0645   -7.2060    1.0411   -7.3132    0.9178
  6.700   -7.1459    1.0431   -7.0048    1.0213   -6.7885    0.9599   -6.1160    0.9824   -6.4133    0.9496   -6.5286    0.8341
  6.800   -6.4882    1.0123   -6.3495    1.0831   -5.9494    1.1276   -5.2898    1.1638   -5.6148    1.1130   -5.7536    0.8952
  6.900   -5.7662    1.2392   -5.5802    1.2874   -5.4545    1.5144   -4.8562    1.5447   -5.1791    1.3975   -5.0847    1.1853
  7.000   -5.4964    1.4308   -5.2574    1.6838   -4.8497    1.5730   -4.2326    1.5351   -4.5055    1.4247   -4.6567    1.3276
  7.100   -4.7653    1.4405   -4.6201    1.7702   -4.1839    2.4786   -3.3944    2.3588   -3.8524    2.1979   -3.8747    1.7422
  7.200   -4.1687    2.3187   -4.3380    2.8679   -4.8643    2.8886   -3.9840    3.1433   -4.0712    2.5356   -3.9435    2.5729
  7.300   -4.6796    2.5761   -5.0490    2.5820   -4.6303    3.0829   -3.6487    3.3185   -3.7391    3.2213   -3.8290    2.8066
  7.400   -4.1883    2.9789   -4.1610    2.7281   -5.0761    2.9406   -4.4596    3.8083   -4.3995    3.2188   -4.3057    2.9306
  7.500   -5.2654    3.2858   -5.0357    4.0235   -4.9590    3.4518   -4.3833    4.1089   -4.1527    3.9547   -3.6493    3.2282
  7.600   -4.9444    2.8716   -5.7804    3.0193   -6.0956    2.6560   -6.3086    3.7409   -5.9343    3.5388   -5.1911    4.2815
  7.700   -5.9299    3.0857   -6.1123    2.3775   -5.3894    1.8333   -5.8742    2.0980   -5.5592    2.5044   -5.7096    2.7025
  7.800   -5.8538    1.6401   -5.5100    1.4088   -5.1578    1.7173   -5.3164    1.6711   -5.5882    1.8834   -5.5982    2.0549
  7.900   -4.9979    1.2176   -4.6903    1.3346   -4.5623    1.2865   -4.6154    1.2206   -4.8265    1.2450   -4.9610    1.2896
  8.000   -4.5783    1.2662   -4.5262    1.4685   -3.8231    1.6119   -3.7589    1.3799   -4.0123    1.3485   -4.1686    1.2598
  8.100   -4.0968    1.0421   -4.0132    1.2304   -4.0635    2.0460   -3.6233    2.1627   -3.8584    1.7188   -3.9165    1.4267
  8.200   -3.4316    1.3023   -3.4748    1.7522   -3.7905    1.9595   -3.8271    1.9459   -3.4902    1.8503   -3.3499    1.4447
  8.300   -3.4973    1.7559   -4.0059    1.8873   -4.3163    2.2366   -3.8392    2.3533   -4.0259    2.3278   -3.2629    2.3077
  8.400   -3.1479    1.6152   -3.5240    1.5166   -4.1363    1.4093   -4.1699    1.6930   -3.9614    1.5513   -3.8975    1.8712
  8.500   -3.0144    2.4679   -3.3164    2.0822   -3.4162    1.4857   -3.5122    1.5837   -3.3992    1.7738   -3.3115    1.7587
  8.600   -3.6853    2.0831   -3.4421    1.8172   -3.5268    1.8544   -3.6726    1.8637   -3.7359    1.7875   -3.5660    2.0375
  8.700   -2.9606    2.0802   -2.9556    2.3663   -3.1808    1.7040   -3.3355    1.5432   -3.2219    1.6512   -3.2436    1.8277
  8.800   -3.5348    3.1727   -4.0556    2.5558   -3.3300    2.4922   -3.1655    2.2996   -3.5019    2.3353   -3.5935    2.3584
  8.900   -4.2144    2.2166   -3.7179    1.8152   -3.8547    1.8541   -4.1254    1.8991   -3.8087    1.6581   -3.7115    1.6625
  9.000   -4.0091    2.2672   -3.6374    2.4093   -3.3677    1.9408   -3.6754    1.3671   -3.4661    1.8199   -3.3627    1.9727
  9.100   -4.4304    1.6167   -4.2889    1.7851   -4.0112    1.9875   -3.6988    1.4878   -3.9757    1.5553   -4.0460    1.7181
  9.200   -3.8544    1.2226   -3.8735    1.5187   -3.8162    1.5075   -3.5467    1.0374   -3.6206    1.1872   -3.7321    1.2470
  9.300   -3.7939    1.3818   -4.0825    1.2789   -3.9342    1.2691   -3.2541    1.1588   -3.6738    1.0957   -3.7035    1.0227
  9.400   -3.6433    0.9599   -3.6702    0.7960   -3.5302    0.8145   -3.3710    0.9359   -3.3720    0.6940   -3.3017    0.6912
  9.500   -3.1925    1.0388   -3.1279    0.7955   -2.9905    0.8600   -2.9832    0.7772   -2.9097    0.6766   -2.8174    0.7487
  9.600   -3.3372    1.1472   -2.9283    1.1833   -2.8900    1.2797   -2.8885    0.9661   -2.7260    0.9509   -2.6935    1.1241
  9.700   -3.0450    0.9104   -2.9785    1.1340   -2.9181    1.2082   -2.7854    0.7577   -2.6507    0.9234   -2.6945    1.0876
  9.800   -2.8210    1.3099   -2.9445    1.4804   -3.0692    1.5517   -2.4608    0.9340   -2.6094    1.2758   -2.7942    1.4572
  9.900   -3.2673    1.1873   -3.3435    1.1283   -3.3270    1.0532   -2.7022    1.0720   -2.8953    1.0176   -3.1060    1.0265
 10.000   -2.9597    0.9909   -2.9720    0.9478   -3.0335    0.9834   -2.5112    0.9378   -2.6242    1.0206   -2.8140    0.9451
