# GW Macroscopic dielectric function without local field effects 
# Scissor operator energy =  0.8000 [eV]
# Tolerance =  0.0200 0.0200
# npweps  = 51
# npwwfn  = 137
# nbands  = 8
# loband  = 2
# nkibz   = 8
# nkbz    = 8
# Lorentzian broadening =  0.1000 [eV]
# List of q-points for the optical limit:
# q =  0.938821, 0.000000, 0.000000, [Reduced coords] 
# q =  0.000000, 0.938821, 0.000000, [Reduced coords] 
# q =  0.000000, 0.000000, 0.938821, [Reduced coords] 
# q =  0.000000, 0.813043, 0.813043, [Reduced coords] 
# q =  0.813043, 0.000000, 0.813043, [Reduced coords] 
# q =  0.813043, 0.813043, 0.000000, [Reduced coords] 
# omega [eV]    RE(eps(q=1)) IM(eps(q=1) RE(eps(q=2) ) ... DOS   IDOS
  0.000   17.8089    0.0000   17.5445    0.0000   17.0742    0.0000   15.5477    0.0000   15.9446    0.0000   16.1680    0.0000    0.0000    0.0000
  0.100   17.8187    0.0196   17.5540    0.0192   17.0834    0.0185   15.5558    0.0161   15.9530    0.0167   16.1765    0.0171    0.0000    0.0000
  0.200   17.8480    0.0393   17.5828    0.0385   17.1112    0.0371   15.5799    0.0323   15.9781    0.0336   16.2021    0.0342    0.0000    0.0000
  0.300   17.8971    0.0593   17.6310    0.0582   17.1576    0.0560   15.6203    0.0487   16.0201    0.0507   16.2449    0.0517    0.0000    0.0000
  0.400   17.9664    0.0798   17.6990    0.0783   17.2230    0.0753   15.6772    0.0656   16.0793    0.0682   16.3053    0.0695    0.0000    0.0000
  0.500   18.0565    0.1009   17.7873    0.0990   17.3080    0.0953   15.7512    0.0829   16.1562    0.0862   16.3838    0.0879    0.0000    0.0000
  0.600   18.1680    0.1228   17.8967    0.1205   17.4133    0.1160   15.8427    0.1008   16.2515    0.1049   16.4809    0.1070    0.0000    0.0000
  0.700   18.3018    0.1458   18.0279    0.1430   17.5396    0.1376   15.9525    0.1195   16.3657    0.1244   16.5974    0.1269    0.0000    0.0000
  0.800   18.4591    0.1699   18.1822    0.1667   17.6881    0.1604   16.0815    0.1393   16.4999    0.1449   16.7343    0.1478    0.0000    0.0000
  0.900   18.6411    0.1956   18.3608    0.1918   17.8599    0.1846   16.2307    0.1601   16.6551    0.1667   16.8927    0.1701    0.0000    0.0000
  1.000   18.8496    0.2230   18.5653    0.2187   18.0566    0.2104   16.4013    0.1824   16.8328    0.1899   17.0739    0.1938    0.0000    0.0000
  1.100   19.0864    0.2526   18.7976    0.2477   18.2800    0.2382   16.5949    0.2063   17.0344    0.2149   17.2796    0.2193    0.0000    0.0000
  1.200   19.3539    0.2846   19.0599    0.2792   18.5323    0.2684   16.8133    0.2322   17.2619    0.2420   17.5118    0.2469    0.0000    0.0000
  1.300   19.6547    0.3197   19.3549    0.3135   18.8159    0.3013   17.0586    0.2604   17.5175    0.2715   17.7726    0.2770    0.0000    0.0000
  1.400   19.9920    0.3582   19.6858    0.3514   19.1338    0.3376   17.3333    0.2914   17.8039    0.3039   18.0648    0.3101    0.0000    0.0000
  1.500   20.3697    0.4011   20.0562    0.3933   19.4897    0.3778   17.6403    0.3256   18.1241    0.3397   18.3917    0.3468    0.0000    0.0000
  1.600   20.7924    0.4490   20.4708    0.4403   19.8878    0.4228   17.9832    0.3638   18.4819    0.3798   18.7570    0.3877    0.0000    0.0000
  1.700   21.2656    0.5030   20.9348    0.4933   20.3334    0.4735   18.3663    0.4067   18.8819    0.4248   19.1654    0.4338    0.0000    0.0000
  1.800   21.7959    0.5646   21.4550    0.5537   20.8325    0.5312   18.7946    0.4553   19.3294    0.4759   19.6225    0.4861    0.0000    0.0000
  1.900   22.3916    0.6354   22.0392    0.6231   21.3928    0.5975   19.2745    0.5110   19.8312    0.5345   20.1350    0.5461    0.0000    0.0000
  2.000   23.0628    0.7176   22.6974    0.7038   22.0238    0.6745   19.8137    0.5754   20.3953    0.6024   20.7114    0.6155    0.0000    0.0000
  2.100   23.8219    0.8143   23.4420    0.7987   22.7371    0.7649   20.4217    0.6508   21.0320    0.6819   21.3620    0.6970    0.0000    0.0000
  2.200   24.6850    0.9296   24.2886    0.9119   23.5477    0.8726   21.1105    0.7402   21.7541    0.7764   22.1001    0.7937    0.0000    0.0000
  2.300   25.6727    1.0690   25.2575    1.0488   24.4746    1.0028   21.8957    0.8476   22.5781    0.8902   22.9426    0.9103    0.0000    0.0000
  2.400   26.8118    1.2407   26.3751    1.2175   25.5429    1.1630   22.7975    0.9792   23.5256    1.0298   23.9116    1.0534    0.0000    0.0000
  2.500   28.1386    1.4566   27.6772    1.4298   26.7862    1.3642   23.8427    1.1436   24.6254    1.2045   25.0368    1.2326    0.0000    0.0000
  2.600   29.7029    1.7350   29.2129    1.7039   28.2508    1.6236   25.0684    1.3542   25.9172    1.4289   26.3588    1.4627    0.0000    0.0000
  2.700   31.5756    2.1056   31.0523    2.0692   30.0027    1.9684   26.5268    1.6323   27.4571    1.7261   27.9353    1.7676    0.0000    0.0000
  2.800   33.8618    2.6190   33.2993    2.5761   32.1392    2.4455   28.2950    2.0145   29.3282    2.1357   29.8516    2.1881    0.0000    0.0000
  2.900   36.7241    3.3687   36.1153    3.3181   34.8112    3.1413   30.4913    2.5678   31.6584    2.7306   32.2392    2.7994    0.0000    0.0000
  3.000   40.4286    4.5460   39.7648    4.4866   38.2650    4.2308   33.3084    3.4280   34.6564    3.6592   35.3128    3.7555    0.0030    0.0000
  3.100   45.4334    6.5975   44.7042    6.5309   42.9256    6.1203   37.0761    4.9105   38.6811    5.2668   39.4409    5.4165    0.0924    0.0004
  3.200   52.5098   10.7775   51.6995   10.7160   49.5211    9.9330   42.3479    7.8931   44.3407    8.5154   45.2401    8.7989    1.1818    0.0047
  3.300   61.9740   21.3574   61.0104   21.3093   58.5836   19.4769   49.3688   15.3011   51.9889   16.6746   52.9107   17.3765    6.5571    0.0288
  3.400   62.0172   46.4467   61.6390   46.6698   60.3909   43.9092   51.1333   32.8383   52.9039   37.0685   52.5569   37.4409   16.3637    0.0889
  3.500   37.3059   57.4386   32.9479   58.1352   32.3861   57.2696   32.7959   44.5935   30.7254   45.4051   32.1512   44.7106   19.7159    0.1614
  3.600   23.1497   50.6420   20.8470   47.2326   20.6441   44.5210   19.8801   37.5244   22.5145   37.1513   26.7395   37.2046   14.1786    0.2135
  3.700   23.5913   37.4831   21.9187   34.7350   20.5043   33.7038   20.8709   25.6069   24.8577   28.6494   28.2802   33.0082   12.4597    0.2593
  3.800   34.3744   46.2396   33.4142   40.6088   30.9298   37.2203   32.4471   28.1491   34.4117   36.8093   32.6649   44.2686   22.4985    0.3420
  3.900   17.9505   58.0978   22.8001   54.9044   23.8083   50.0529   28.9800   42.8800   20.6838   48.3389   16.5891   50.8161   30.0957    0.4526
  4.000    9.4101   44.9378   13.1819   44.4202   15.3414   39.9197   19.5639   39.4326   14.4846   38.2815    9.9950   37.1499   24.9204    0.5441
  4.100   15.5524   39.8586   18.0399   42.6127   24.1128   42.3604   19.6992   40.0173   18.7240   37.1466   17.5846   35.2323   20.1775    0.6183
  4.200   25.6226   44.8097   24.0649   47.6133   23.6668   49.5368   22.3067   41.1276   22.1934   41.1220   21.8376   39.7529   19.6383    0.6905
  4.300   27.0492   61.1806   25.2812   60.9509   24.5023   59.2007   23.7729   50.3569   23.9437   50.7411   23.4980   49.2830   25.9908    0.7860
  4.400   12.2517   86.2125   10.4638   85.5409   12.3637   83.1275   13.6805   69.0423   12.6373   69.3959   14.9732   67.2032   38.9955    0.9293
  4.500  -32.1546   81.5822  -33.2696   79.2209  -31.2197   80.9651  -19.1956   65.2536  -18.5065   64.0378  -15.4543   66.0853   41.6108    1.0822
  4.600  -38.1565   46.6285  -40.0447   45.5346  -42.2255   44.9046  -22.7535   38.9221  -20.4201   41.0893  -20.1374   42.6864   31.3203    1.1973
  4.700  -24.7989   38.5059  -27.8415   30.6973  -29.5663   28.7233  -10.9700   31.9700  -10.7030   37.0116   -9.0600   39.0190   27.9086    1.2999
  4.800  -29.8617   43.1918  -18.4767   35.5493  -18.6968   26.9216   -5.4285   40.2956  -13.3424   44.6259  -13.2037   50.9385   35.7642    1.4313
  4.900  -36.0088   32.1680  -29.1189   35.7679  -17.8790   35.0212  -18.6315   47.3385  -23.2893   44.4404  -31.0157   45.3630   37.8911    1.5705
  5.000  -32.8262   19.4925  -31.1264   26.1199  -25.8247   29.4630  -30.2992   35.6116  -31.2172   30.9334  -35.1911   29.1524   27.4963    1.6716
  5.100  -23.6824   16.0405  -25.8846   18.5235  -25.8452   23.9506  -28.9580   24.0327  -27.8176   22.2872  -28.3658   18.8482   20.2278    1.7459
  5.200  -20.5862   18.3202  -20.9962   18.9032  -23.0545   19.9817  -24.1165   18.9496  -22.8637   18.7078  -22.6994   16.6897   24.3270    1.8353
  5.300  -22.1417   19.6082  -23.5681   20.0920  -23.4592   20.4504  -22.5513   18.3243  -22.6289   18.2346  -21.1892   16.8705   29.6542    1.9443
  5.400  -23.0399   14.8052  -23.6703   13.7051  -24.2384   14.3132  -21.8546   13.1976  -21.1311   13.2361  -19.2767   13.6439   27.2343    2.0444
  5.500  -19.5337   13.7856  -19.3275   13.0922  -20.1335   12.5202  -16.6306   11.9780  -16.5600   13.7285  -16.0941   15.5095   29.3655    2.1523
  5.600  -21.3727   14.3418  -20.6406   13.2571  -20.4776   11.9952  -16.7803   14.8006  -18.9386   14.8237  -20.0728   16.1714   35.1901    2.2816
  5.700  -21.8821   10.2160  -20.1587   10.2489  -18.6912    9.2323  -17.9807   12.2890  -19.0038   11.4504  -20.4681   11.5484   31.9089    2.3989
  5.800  -19.3694    7.8593  -18.6075    8.7414  -16.5387    9.2328  -17.0936   11.1052  -17.3318   10.0609  -18.4701    9.1561   29.7625    2.5083
  5.900  -17.3169    7.0292  -17.3051    7.7026  -16.8398    9.1130  -16.9552    9.9688  -16.7715    9.4295  -17.2289    8.2312   32.7265    2.6285
  6.000  -16.6820    7.6705  -16.3369    7.7880  -16.1643    8.2416  -17.1337    9.4228  -16.4501    8.8469  -15.8237    7.5534   31.0572    2.7427
  6.100  -17.3220    5.9144  -17.0049    6.4856  -16.7808    7.2281  -17.5186    6.2542  -17.3016    7.0037  -16.3551    7.5317   25.3337    2.8358
  6.200  -15.6918    4.0457  -15.7129    4.6527  -16.0556    5.3419  -15.3792    4.5371  -15.9486    4.7378  -15.8931    5.1295   25.9227    2.9310
  6.300  -14.1800    3.5986  -14.6434    3.9899  -15.1072    3.9307  -14.2444    3.8836  -14.4394    3.6176  -14.5675    3.9255   29.0659    3.0378
  6.400  -13.5299    3.3699  -13.9268    3.0676  -13.8704    2.7953  -13.3438    2.8666  -13.2256    2.9991  -13.6186    3.1429   23.6650    3.1248
  6.500  -12.8759    2.3892  -12.7168    2.0902  -12.4347    2.0397  -11.9805    1.9878  -12.2598    2.1987  -12.4196    2.1612   14.7448    3.1790
  6.600  -11.6606    1.6838  -11.3665    1.6501  -11.2291    1.7195  -10.6596    1.5700  -10.9534    1.6437  -11.1496    1.6907   10.5057    3.2176
  6.700  -10.4691    1.4106  -10.3219    1.4963  -10.1669    1.4466   -9.5083    1.3979   -9.8138    1.4174  -10.0416    1.4183   10.6452    3.2567
  6.800   -9.5188    1.3184   -9.4074    1.3088   -9.1657    1.2985   -8.5118    1.2911   -8.8351    1.2872   -9.0684    1.2755   11.0272    3.2972
  6.900   -8.6558    1.2612   -8.4697    1.2644   -8.2139    1.2979   -7.6025    1.3331   -7.8852    1.2690   -8.1342    1.2107   11.3895    3.3391
  7.000   -7.8901    1.2439   -7.6882    1.2920   -7.4134    1.3572   -6.7612    1.3375   -7.1062    1.3075   -7.3798    1.2560   12.6079    3.3854
  7.100   -7.0660    1.3421   -6.8929    1.4033   -6.6132    1.4992   -5.9302    1.6002   -6.2301    1.4239   -6.5680    1.2343   16.4011    3.4457
  7.200   -6.4515    1.5341   -6.1619    1.6028   -5.7896    1.7685   -5.2413    1.7558   -5.5106    1.7566   -5.6515    1.4827   22.2836    3.5276
  7.300   -5.7069    1.7239   -5.5036    2.0594   -5.1092    2.4281   -4.1884    2.2340   -4.7578    2.1628   -5.0889    2.0323   28.5702    3.6326
  7.400   -5.0468    2.3955   -5.0303    2.5003   -4.8089    3.3116   -3.5912    3.6951   -4.1918    3.0666   -4.5781    2.4260   41.4428    3.7849
  7.500   -4.8978    3.2923   -4.6629    3.4262   -5.2503    4.0719   -4.3325    4.8910   -4.4013    4.0524   -4.2004    3.3375   58.1610    3.9986
  7.600   -5.7151    3.9278   -5.3572    4.3197   -6.1247    4.5554   -5.5551    5.3860   -5.3236    4.7936   -4.6333    4.1141   66.8265    4.2442
  7.700   -5.9817    3.3770   -6.2766    4.4563   -7.1063    3.6654   -6.7453    4.8580   -6.1995    4.2780   -5.2331    4.6335   64.0281    4.4795
  7.800   -6.0823    3.7372   -7.3477    3.4065   -6.9419    2.6880   -7.3842    3.5677   -6.5429    3.8395   -6.5561    4.4098   54.3172    4.6791
  7.900   -7.2428    2.9252   -6.9484    2.2396   -6.5864    2.1129   -7.1031    2.3866   -7.0590    2.8804   -7.2028    2.9811   38.3334    4.8200
  8.000   -6.6034    1.6318   -6.3094    1.7258   -6.0155    1.6047   -6.2541    1.5615   -6.4701    1.8107   -6.4618    1.8960   22.6924    4.9034
  8.100   -5.6891    1.3401   -5.7437    1.4370   -5.3120    1.4696   -5.3100    1.3572   -5.6053    1.4105   -5.7288    1.5667   19.8680    4.9764
  8.200   -5.1635    1.3927   -5.0332    1.3793   -4.7076    1.6769   -4.5500    1.6285   -4.8242    1.4460   -5.1330    1.4450   27.7238    5.0783
  8.300   -4.7214    1.3529   -4.7088    1.5951   -4.5759    1.9966   -4.3442    2.0961   -4.3928    1.7987   -4.6102    1.3949   34.7530    5.2060
  8.400   -4.1864    1.4841   -4.3127    1.6138   -4.4665    2.0276   -4.2920    2.1961   -4.2924    2.0542   -3.9342    1.5869   39.7199    5.3520
  8.500   -3.7965    1.8000   -4.0104    1.9227   -4.3306    2.2788   -4.1879    2.4691   -4.1147    2.1537   -3.7445    2.2902   48.4566    5.5300
  8.600   -3.6319    2.2734   -3.9534    2.1902   -4.6183    2.0834   -4.5016    2.5544   -4.2496    2.3495   -4.1215    2.4010   55.7774    5.7350
  8.700   -3.8759    2.6362   -3.9886    2.2715   -4.2493    1.8533   -4.7064    2.2367   -4.2756    2.2549   -4.0383    2.2603   58.4036    5.9496
  8.800   -3.9827    2.5699   -3.9393    2.4809   -3.9569    2.0918   -4.4093    1.9087   -4.2387    2.1630   -3.9262    2.5053   62.3984    6.1790
  8.900   -4.0370    2.8343   -4.0700    2.5595   -4.0604    2.2218   -4.1599    2.0717   -4.1190    2.1739   -4.2131    2.5111   71.5235    6.4418
  9.000   -4.6027    2.7673   -4.4353    2.5317   -4.1343    2.2450   -4.4621    2.0813   -4.2894    2.1847   -4.3889    2.3320   77.9520    6.7283
  9.100   -4.6804    2.3646   -4.3469    2.2880   -4.2232    2.1694   -4.4120    1.7276   -4.2666    2.0532   -4.3520    2.1403   77.3092    7.0124
  9.200   -4.7249    2.0008   -4.5637    2.1606   -4.2938    2.0682   -4.2490    1.4751   -4.4296    1.8332   -4.4699    2.0150   64.9269    7.2510
  9.300   -4.5739    1.7776   -4.5329    1.9597   -4.4445    1.8784   -4.0528    1.4472   -4.2884    1.6296   -4.5505    1.6653   46.6450    7.4224
  9.400   -4.4747    1.4380   -4.6167    1.5235   -4.3784    1.4652   -4.0096    1.3203   -4.2773    1.3196   -4.3463    1.2220   31.4790    7.5381
  9.500   -4.1270    1.2494   -4.3520    1.1532   -4.1722    1.1220   -3.8652    1.1198   -4.0760    1.0344   -4.0172    0.9532   20.5263    7.6135
  9.600   -3.9318    1.2120   -3.9268    0.8707   -3.7436    0.9135   -3.6469    0.9641   -3.7125    0.8022   -3.6023    0.8558   18.1268    7.6801
  9.700   -3.6755    1.0844   -3.4217    0.9229   -3.2682    0.9483   -3.3568    0.9208   -3.2776    0.7663   -3.1877    0.8940   20.4337    7.7552
  9.800   -3.3321    1.1582   -3.1652    1.1443   -2.9320    1.2964   -3.1248    0.9511   -2.9399    0.9738   -2.8734    1.1894   25.6894    7.8457
  9.900   -3.1431    1.4343   -2.9634    1.4005   -3.0115    1.7158   -2.9269    1.0679   -2.7807    1.2365   -2.8290    1.6163   38.0422    8.0088
 10.000   -3.2867    1.6544   -3.0654    1.7902   -3.3001    1.8154   -2.8108    1.2009   -2.7784    1.6148   -3.2564    1.8110   48.9669    8.0763
