# Macroscopic dielectric function obtained with the BS equation.
#  RPA L0 with KS energies and KS wavefunctions     LOCAL FIELD EFFECTS INCLUDED
# RESONANT-ONLY calculation
# Coulomb term constructed with full W(G1,G2)
# Scissor operator energy =  0.8000 [eV]
# Tolerance =  0.0200 0.0200
# npweps  = 51
# npwwfn  = 137
# nbands  = 8
# loband  = 2
# nkibz   = 64
# nkbz    = 64
# Lorentzian broadening =  0.1000 [eV]
# List of q-points for the optical limit:
# q =  0.938821, 0.000000, 0.000000, [Reduced coords] 
# q =  0.000000, 0.938821, 0.000000, [Reduced coords] 
# q =  0.000000, 0.000000, 0.938821, [Reduced coords] 
# q =  0.000000, 0.813043, 0.813043, [Reduced coords] 
# q =  0.813043, 0.000000, 0.813043, [Reduced coords] 
# q =  0.813043, 0.813043, 0.000000, [Reduced coords] 
# omega [eV]    RE(eps(q=1)) IM(eps(q=1) RE(eps(q=2) ) ... 
  0.000   20.1837    0.0000   19.8753    0.0000   19.3106    0.0000   17.5061    0.0000   17.9797    0.0000   18.2376    0.0000
  0.100   20.1984    0.0295   19.8897    0.0289   19.3244    0.0277   17.5180    0.0239   17.9921    0.0249   18.2502    0.0254
  0.200   20.2425    0.0592   19.9330    0.0581   19.3660    0.0557   17.5539    0.0481   18.0295    0.0501   18.2883    0.0511
  0.300   20.3166    0.0896   20.0056    0.0879   19.4357    0.0843   17.6140    0.0727   18.0922    0.0758   18.3522    0.0773
  0.400   20.4214    0.1209   20.1084    0.1185   19.5342    0.1137   17.6990    0.0980   18.1808    0.1022   18.4426    0.1042
  0.500   20.5579    0.1534   20.2423    0.1505   19.6626    0.1443   17.8097    0.1243   18.2962    0.1297   18.5603    0.1322
  0.600   20.7277    0.1876   20.4087    0.1840   19.8222    0.1764   17.9472    0.1519   18.4397    0.1585   18.7065    0.1616
  0.700   20.9325    0.2239   20.6096    0.2196   20.0147    0.2104   18.1130    0.1811   18.6127    0.1890   18.8829    0.1927
  0.800   21.1746    0.2627   20.8470    0.2577   20.2423    0.2469   18.3088    0.2123   18.8170    0.2216   19.0912    0.2259
  0.900   21.4569    0.3047   21.1238    0.2988   20.5075    0.2863   18.5368    0.2459   19.0550    0.2568   19.3339    0.2618
  1.000   21.7828    0.3506   21.4434    0.3438   20.8136    0.3292   18.7996    0.2825   19.3295    0.2951   19.6137    0.3009
  1.100   22.1564    0.4010   21.8099    0.3933   21.1645    0.3765   19.1005    0.3226   19.6439    0.3371   19.9343    0.3438
  1.200   22.5829    0.4572   22.2281    0.4483   21.5649    0.4291   19.4434    0.3671   20.0022    0.3838   20.2997    0.3914
  1.300   23.0685    0.5203   22.7043    0.5102   22.0205    0.4880   19.8330    0.4169   20.4096    0.4361   20.7151    0.4447
  1.400   23.6206    0.5918   23.2457    0.5804   22.5383    0.5549   20.2750    0.4731   20.8720    0.4952   21.1867    0.5050
  1.500   24.2485    0.6739   23.8615    0.6609   23.1270    0.6315   20.7765    0.5373   21.3970    0.5627   21.7221    0.5739
  1.600   24.9638    0.7690   24.5631    0.7543   23.7973    0.7203   21.3463    0.6114   21.9939    0.6408   22.3309    0.6536
  1.700   25.7809    0.8808   25.3646    0.8640   24.5624    0.8245   21.9951    0.6980   22.6742    0.7322   23.0247    0.7468
  1.800   26.7181    1.0138   26.2839    0.9946   25.4395    0.9484   22.7369    0.8005   23.4525    0.8405   23.8185    0.8572
  1.900   27.7990    1.1744   27.3443    1.1524   26.4504    1.0979   23.5891    0.9236   24.3476    0.9708   24.7314    0.9901
  2.000   29.0542    1.3717   28.5761    1.3464   27.6235    1.2814   24.5747    1.0740   25.3840    1.1302   25.7885    1.1526
  2.100   30.5251    1.6189   30.0199    1.5896   28.9971    1.5111   25.7243    1.2613   26.5943    1.3291   27.0227    1.3552
  2.200   32.2677    1.9359   31.7312    1.9018   30.6231    1.8054   27.0793    1.4998   28.0228    1.5829   28.4793    1.6136
  2.300   34.3610    2.3535   33.7880    2.3138   32.5747    2.1930   28.6977    1.8119   29.7319    1.9158   30.2215    1.9523
  2.400   36.9199    2.9230   36.3043    2.8766   34.9583    2.7211   30.6634    2.2345   31.8115    2.3675   32.3405    2.4113
  2.500   40.1179    3.7333   39.4524    3.6797   37.9346    3.4724   33.1024    2.8314   34.3974    3.0074   34.9740    3.0602
  2.600   44.2301    4.9530   43.5066    4.8927   41.7583    4.6027   36.2138    3.7229   37.7044    3.9661   38.3386    4.0301
  2.700   49.7169    6.9328   48.9274    6.8717   46.8560    6.4368   40.3287    5.1591   42.0908    5.5161   42.7956    5.5925
  2.800   57.3887   10.5097   56.5275   10.4726   53.9799    9.7474   46.0278    7.7348   48.1862    8.3078   48.9788    8.3914
  2.900   68.6385   18.0724   67.6967   18.1636   64.4348   16.7304   54.3039   13.1471   57.0691   14.2025   57.9839   14.2518
  3.000   84.1116   37.9739   82.8714   38.6468   79.0342   35.0673   65.5785   27.3208   69.1960   29.7240   70.4964   29.5481
  3.100   78.3437   89.3461   74.1431   90.4916   74.8251   84.9958   61.6650   63.1089   64.3665   69.5876   67.4160   70.9972
  3.200   14.9636   95.3785   10.9657   91.6180   10.1789   87.8523   20.5939   69.2260   15.0638   72.3870   14.7406   72.3911
  3.300    4.8819   66.9118    2.9779   61.8529    3.2988   58.4506    8.3566   51.1405   10.1871   49.3668   13.8989   48.9707
  3.400    1.5005   56.1011    1.5157   51.7197    2.1182   50.1492    6.7501   38.5563   10.5358   42.5175   14.8549   48.5276
  3.500   12.7336   52.6296   13.6817   45.2959   11.6653   40.6352   19.3133   32.9457   21.2755   42.0556   20.6264   50.8110
  3.600    0.5966   67.4532   10.7178   65.1759   16.0165   56.5294   23.9656   51.4580   12.3592   60.5292    3.8835   62.9624
  3.700  -14.5083   52.1059  -11.2357   55.9701   -5.1900   55.6063    3.3023   53.0830   -4.7316   48.8771  -10.0420   48.2744
  3.800   -8.2713   40.9127   -6.1207   44.3299    0.0338   44.9003    3.0043   46.4774    0.3139   41.7024   -2.7905   37.8098
  3.900   -0.9716   43.2146   -2.5617   46.7468   -2.0638   52.9556   -1.2568   46.3453    0.6531   45.0700    0.6671   41.3838
  4.000   -6.2821   56.1734  -10.0299   54.2887  -11.6400   54.4403   -6.4179   49.1125   -5.2135   47.6334   -4.4182   46.4213
  4.100  -18.2231   54.8163  -19.9071   53.1959  -18.6862   53.3760  -12.7359   46.7707  -12.1079   46.4218  -11.1845   46.6448
  4.200  -32.4412   45.1807  -33.8964   44.2659  -33.7024   44.8930  -22.8502   39.4284  -23.4372   38.8122  -20.6441   41.1924
  4.300  -29.7802   28.8779  -30.6001   26.3001  -32.9092   25.6121  -19.5893   25.3349  -17.8951   27.7037  -16.9584   29.1094
  4.400  -21.8475   30.7656  -21.8519   22.9527  -23.4081   18.9938  -10.3517   25.4312  -10.6958   31.2077  -12.0396   34.6289
  4.500  -31.2048   30.1006  -20.1119   29.7682  -15.1544   21.8827   -8.9042   35.9418  -19.4664   34.2606  -21.5191   40.4768
  4.600  -32.0301   18.0680  -29.5883   23.0913  -21.5369   27.4874  -25.0618   34.6953  -25.7660   32.0124  -31.7466   27.2786
  4.700  -26.8155   12.9191  -26.9720   15.1349  -26.5735   18.9129  -29.7733   22.4858  -28.8331   19.5825  -29.5245   17.3160
  4.800  -22.0002    9.3291  -21.8622   11.6423  -21.3215   13.3893  -24.1479   14.5100  -24.3399   13.3220  -23.7177   12.1263
  4.900  -16.9671   10.2041  -18.7527   10.5367  -19.6563   12.8997  -21.0290   11.9475  -19.3123   11.5021  -19.8606    9.9799
  5.000  -16.7518   11.4344  -16.1516   12.5075  -16.8552   12.2257  -17.2852   11.3253  -17.4013   10.9676  -16.3271   10.7875
  5.100  -16.7477   12.0918  -18.1608   10.9838  -18.4690   11.7172  -17.3329   10.2104  -16.9640   11.1369  -16.2504    9.6683
  5.200  -16.5548    9.2928  -16.4649    9.6001  -16.6068    9.6785  -15.2872    8.8326  -15.0501    8.4197  -13.6652   10.0033
  5.300  -14.8343   10.8460  -14.7237    9.3078  -15.4724    8.7672  -12.4822    8.5429  -12.7815   10.5659  -13.3596   10.8343
  5.400  -17.3318    8.9606  -16.5666    9.5490  -15.7264    8.9673  -13.3651   11.2739  -15.0171    9.6166  -16.1916   10.9943
  5.500  -16.1895    7.1239  -15.2782    6.7921  -14.5311    6.4893  -14.0013    8.5156  -14.3323    8.7917  -15.1104    7.5052
  5.600  -14.7871    5.1596  -14.7401    6.4254  -13.3422    7.3543  -13.8147    8.8233  -13.7347    7.0412  -14.6038    7.2121
  5.700  -12.8962    5.6945  -13.1336    5.2251  -13.4874    5.8886  -13.5626    6.9988  -13.4348    7.3077  -13.1990    5.4193
  5.800  -13.5346    5.3222  -13.1107    6.0319  -12.6424    6.2732  -14.2410    6.6815  -13.1718    6.1872  -12.4453    6.2950
  5.900  -13.1991    4.4057  -12.8966    4.2543  -13.0823    4.7472  -13.4158    3.9593  -13.6557    4.8657  -12.7352    5.0040
  6.000  -12.1270    3.0402  -12.1205    4.0275  -12.1372    4.3928  -11.6247    3.5551  -12.1018    3.3703  -12.5255    4.2030
  6.100  -10.9512    3.2639  -11.5692    3.1654  -12.1380    3.0738  -11.4552    3.1224  -11.4596    3.2272  -11.4799    3.0147
  6.200  -11.1657    2.6369  -11.2098    2.4910  -10.9100    2.2363  -10.6047    2.2831  -10.6722    2.2113  -10.9606    2.5379
  6.300  -10.1695    1.8124  -10.1478    1.5870  -10.0372    1.6626   -9.6539    1.5480   -9.7874    1.7677   -9.9662    1.6322
  6.400   -9.3530    1.4026   -9.0294    1.3570   -8.9521    1.3479   -8.5291    1.2183   -8.8115    1.2823   -8.8833    1.3804
  6.500   -8.3938    1.1222   -8.3444    1.2811   -8.2019    1.2773   -7.6244    1.2002   -7.8401    1.1754   -8.1523    1.1796
  6.600   -7.5780    1.1741   -7.5482    1.0639   -7.4023    1.0691   -6.9182    1.0904   -7.1806    1.1347   -7.2924    1.0122
  6.700   -7.0755    1.0980   -6.7939    1.1509   -6.5844    1.1545   -6.1027    1.1354   -6.3992    1.0379   -6.5629    1.1054
  6.800   -6.3227    1.0257   -6.2974    1.1061   -6.1047    1.2271   -5.5847    1.2536   -5.7380    1.2056   -6.0532    1.0267
  6.900   -5.7483    1.2330   -5.5109    1.1176   -5.3231    1.1926   -4.8300    1.2477   -5.1569    1.1667   -5.2715    0.9969
  7.000   -5.2025    1.1780   -4.9100    1.5306   -4.5220    1.7083   -4.1710    1.6922   -4.2980    1.4492   -4.4986    1.3329
  7.100   -4.3730    1.5168   -4.4690    1.6425   -4.4193    2.1941   -3.5862    1.9074   -4.0063    2.1349   -4.1710    1.7115
  7.200   -4.1435    2.1810   -3.8054    2.4089   -3.8527    2.8458   -2.7587    3.1412   -3.5123    2.2945   -3.5350    2.1638
  7.300   -3.6142    2.6950   -4.0907    2.8794   -4.8395    3.4846   -4.1349    4.1855   -3.4217    3.7037   -3.6177    2.7278
  7.400   -4.5955    3.9827   -3.9147    3.9463   -4.7482    3.3520   -4.2078    4.1077   -4.2952    3.4966   -3.1793    3.5824
  7.500   -5.0111    3.0314   -5.9032    3.7145   -5.8297    3.1349   -5.6505    3.9411   -4.5017    4.2693   -4.7004    4.1330
  7.600   -5.2927    3.7085   -5.5301    2.7129   -5.3098    2.2352   -5.3665    3.1671   -5.6204    3.4276   -4.9394    3.9590
  7.700   -6.2758    2.3046   -5.8617    2.3216   -5.3774    2.3350   -6.0175    2.5888   -5.9404    2.8541   -6.2612    2.9526
  7.800   -5.4269    1.3654   -5.2665    1.4650   -5.1248    1.4705   -5.3521    1.4685   -5.5907    1.6022   -5.5115    1.6457
  7.900   -4.7267    1.3330   -4.6610    1.5028   -4.2962    1.3681   -4.4116    1.2921   -4.6526    1.2288   -4.7184    1.5373
  8.000   -4.4445    1.1585   -4.4518    1.2564   -4.1585    1.7629   -4.0033    1.7006   -4.0440    1.5170   -4.4918    1.3290
  8.100   -3.7992    1.1318   -3.8029    1.2608   -3.9515    1.3657   -3.8689    1.4782   -3.9586    1.4434   -3.7810    1.1801
  8.200   -3.5707    1.4388   -3.7014    1.5215   -3.2657    1.6534   -3.2775    1.8028   -3.3451    1.5997   -3.3283    1.6756
  8.300   -3.1722    1.3334   -3.2495    1.3563   -3.6139    2.1513   -3.5789    2.0517   -3.5601    2.0020   -3.3674    1.6625
  8.400   -2.6943    2.0224   -2.7926    2.0707   -3.4296    1.9148   -3.3249    2.2074   -3.2608    1.8533   -2.9185    2.1128
  8.500   -3.3460    2.1830   -3.5044    2.1659   -3.7280    2.1055   -4.0068    2.0829   -3.5864    2.3076   -3.5585    2.2376
  8.600   -2.8104    2.0904   -3.0042    2.0008   -3.3918    1.6192   -3.4762    1.4884   -3.5057    1.7004   -3.1323    2.1133
  8.700   -3.3151    2.9855   -3.4450    2.6095   -3.1042    2.2004   -2.9810    2.0575   -3.1328    2.1564   -3.7761    2.5295
  8.800   -3.6644    2.1932   -3.4530    1.9419   -3.5971    1.8937   -3.7069    2.0724   -3.6787    1.9422   -3.6785    1.6957
  8.900   -3.4704    2.5935   -3.1867    2.4963   -3.0314    1.9230   -3.3519    1.8066   -3.2131    1.8931   -3.2194    2.0529
  9.000   -4.1407    2.0140   -3.8859    2.1323   -3.6392    2.3534   -3.7806    1.9094   -3.8004    2.0908   -3.8104    1.9261
  9.100   -3.6126    1.7364   -3.5391    2.0826   -3.5817    1.7558   -3.5343    1.3018   -3.6195    1.4935   -3.5520    1.7395
  9.200   -3.8997    1.7238   -4.2127    1.8253   -3.7840    1.9007   -3.2995    1.5349   -3.6837    1.5869   -3.9275    1.4402
  9.300   -3.5310    1.2311   -3.8107    1.0556   -3.7768    1.1296   -3.5020    1.1530   -3.6190    0.9669   -3.5015    0.8807
  9.400   -3.2965    1.4967   -3.2517    1.0245   -3.1679    0.9065   -3.0460    0.9776   -3.0877    0.7927   -2.9874    0.8945
  9.500   -3.4095    1.1405   -3.1137    1.0443   -2.8307    1.1736   -3.0229    1.1110   -2.8303    0.9719   -2.8423    0.9753
  9.600   -2.8598    1.0463   -2.6537    1.0770   -2.6829    1.1791   -2.7940    0.8459   -2.6084    0.8969   -2.4131    1.0453
  9.700   -2.7386    1.6034   -2.6611    1.6443   -2.5038    1.7460   -2.4434    1.0848   -2.2764    1.3019   -2.4256    1.7458
  9.800   -3.0579    1.3606   -2.8321    1.4540   -3.2336    1.5943   -2.6449    1.1408   -2.7596    1.4592   -2.9274    1.4684
  9.900   -2.7364    1.5209   -2.9196    1.7971   -2.9155    1.2952   -2.3259    1.1248   -2.5501    1.3125   -2.7948    1.5815
 10.000   -3.2604    1.5563   -3.1941    1.3277   -3.1401    1.4209   -2.5740    1.4962   -2.8832    1.4969   -3.2279    1.2636
