# Macroscopic dielectric function obtained with the BS equation.
#  RPA L0 with KS energies and KS wavefunctions     LOCAL FIELD EFFECTS INCLUDED
# RESONANT-ONLY calculation
# Coulomb term constructed with full W(G1,G2)
# Scissor operator energy =  0.8000 [eV]
# Tolerance =  0.0200 0.0200
# npweps  = 51
# npwwfn  = 137
# nbands  = 8
# loband  = 2
# nkibz   = 2
# nkbz    = 32
# Lorentzian broadening =  0.1000 [eV]
# List of q-points for the optical limit:
# q =  0.938821, 0.000000, 0.000000, [Reduced coords] 
# q =  0.000000, 0.938821, 0.000000, [Reduced coords] 
# q =  0.000000, 0.000000, 0.938821, [Reduced coords] 
# q =  0.000000, 0.813043, 0.813043, [Reduced coords] 
# q =  0.813043, 0.000000, 0.813043, [Reduced coords] 
# q =  0.813043, 0.813043, 0.000000, [Reduced coords] 
# omega [eV]    RE(eps(q=1)) IM(eps(q=1) RE(eps(q=2) ) ... 
  0.000   21.7288    0.0000   21.7329    0.0000   21.7315    0.0000   21.7286    0.0000   21.7308    0.0000   21.7332    0.0000
  0.100   21.7442    0.0309   21.7483    0.0310   21.7470    0.0310   21.7440    0.0309   21.7462    0.0310   21.7486    0.0310
  0.200   21.7906    0.0622   21.7947    0.0622   21.7934    0.0622   21.7904    0.0622   21.7926    0.0622   21.7950    0.0622
  0.300   21.8684    0.0940   21.8726    0.0941   21.8712    0.0941   21.8682    0.0940   21.8705    0.0941   21.8728    0.0941
  0.400   21.9784    0.1268   21.9826    0.1269   21.9812    0.1269   21.9781    0.1268   21.9805    0.1269   21.9829    0.1269
  0.500   22.1216    0.1609   22.1259    0.1610   22.1245    0.1609   22.1214    0.1609   22.1237    0.1609   22.1262    0.1610
  0.600   22.2996    0.1966   22.3040    0.1967   22.3025    0.1967   22.2993    0.1966   22.3018    0.1967   22.3043    0.1967
  0.700   22.5141    0.2344   22.5186    0.2345   22.5171    0.2345   22.5139    0.2344   22.5164    0.2345   22.5189    0.2345
  0.800   22.7675    0.2748   22.7722    0.2749   22.7706    0.2749   22.7673    0.2748   22.7698    0.2749   22.7725    0.2749
  0.900   23.0626    0.3183   23.0674    0.3185   23.0658    0.3184   23.0624    0.3183   23.0650    0.3184   23.0677    0.3185
  1.000   23.4029    0.3656   23.4078    0.3658   23.4062    0.3658   23.4026    0.3656   23.4053    0.3657   23.4081    0.3658
  1.100   23.7924    0.4176   23.7975    0.4178   23.7958    0.4177   23.7921    0.4176   23.7949    0.4177   23.7978    0.4178
  1.200   24.2361    0.4751   24.2415    0.4753   24.2397    0.4753   24.2359    0.4751   24.2388    0.4752   24.2418    0.4753
  1.300   24.7402    0.5394   24.7459    0.5397   24.7440    0.5396   24.7400    0.5394   24.7431    0.5395   24.7462    0.5397
  1.400   25.3121    0.6119   25.3181    0.6122   25.3161    0.6121   25.3118    0.6119   25.3150    0.6121   25.3184    0.6122
  1.500   25.9606    0.6945   25.9670    0.6949   25.9648    0.6948   25.9603    0.6945   25.9637    0.6947   25.9673    0.6949
  1.600   26.6969    0.7897   26.7037    0.7901   26.7014    0.7900   26.6966    0.7897   26.7002    0.7899   26.7040    0.7901
  1.700   27.5346    0.9004   27.5419    0.9010   27.5395    0.9008   27.5343    0.9004   27.5382    0.9007   27.5423    0.9010
  1.800   28.4910    1.0310   28.4989    1.0316   28.4963    1.0314   28.4907    1.0310   28.4949    1.0313   28.4992    1.0316
  1.900   29.5879    1.1868   29.5964    1.1875   29.5936    1.1873   29.5876    1.1868   29.5921    1.1871   29.5968    1.1875
  2.000   30.8532    1.3755   30.8626    1.3764   30.8595    1.3761   30.8529    1.3755   30.8579    1.3759   30.8629    1.3764
  2.100   32.3238    1.6079   32.3341    1.6089   32.3306    1.6086   32.3234    1.6079   32.3289    1.6084   32.3344    1.6089
  2.200   34.0484    1.8994   34.0598    1.9007   34.0560    1.9003   34.0481    1.8994   34.0541    1.9001   34.0602    1.9007
  2.300   36.0938    2.2734   36.1066    2.2749   36.1023    2.2744   36.0934    2.2734   36.1001    2.2741   36.1070    2.2749
  2.400   38.5533    2.7655   38.5678    2.7674   38.5629    2.7668   38.5529    2.7655   38.5605    2.7664   38.5682    2.7674
  2.500   41.5616    3.4336   41.5782    3.4361   41.5727    3.4353   41.5612    3.4336   41.5699    3.4349   41.5786    3.4361
  2.600   45.3203    4.3763   45.3396    4.3795   45.3331    4.3784   45.3199    4.3762   45.3299    4.3779   45.3400    4.3795
  2.700   50.1441    5.7720   50.1671    5.7763   50.1594    5.7749   50.1437    5.7719   50.1555    5.7741   50.1675    5.7764
  2.800   56.5503    7.9721   56.5781    7.9784   56.5688    7.9763   56.5498    7.9721   56.5641    7.9753   56.5786    7.9785
  2.900   65.4362   11.7449   65.4710   11.7546   65.4593   11.7513   65.4357   11.7448   65.4535   11.7498   65.4715   11.7547
  3.000   78.4309   19.0196   78.4763   19.0363   78.4611   19.0307   78.4303   19.0194   78.4536   19.0280   78.4769   19.0364
  3.100   98.2945   35.6251   98.3561   35.6593   98.3354   35.6477   98.2936   35.6245   98.3252   35.6423   98.3568   35.6596
  3.200  124.1530   82.9398  124.2275   83.0288  124.2025   82.9985  124.1520   82.9381  124.1901   82.9847  124.2285   83.0295
  3.300   74.3334  200.0254   74.2795  200.1862   74.2989  200.1319   74.3348  200.0217   74.3049  200.1060   74.2811  200.1891
  3.400  -78.0139  139.4411  -78.0711  139.4464  -78.0518  139.4457  -78.0102  139.4401  -78.0426  139.4422  -78.0746  139.4500
  3.500  -66.6194   55.0359  -66.6284   55.0465  -66.6256   55.0433  -66.6155   55.0361  -66.6234   55.0406  -66.6330   55.0472
  3.600  -40.8999   27.7838  -40.8914   27.8005  -40.8944   27.7950  -40.8954   27.7848  -40.8953   27.7919  -40.8965   27.7998
  3.700  -22.4164   17.9117  -22.3894   17.9355  -22.3985   17.9276  -22.4107   17.9137  -22.4027   17.9234  -22.3956   17.9336
  3.800   -8.1604   14.3248   -8.1072   14.3630   -8.1251   14.3503   -8.1522   14.3288   -8.1337   14.3438   -8.1158   14.3592
  3.900    4.7121   14.2625    4.8069   14.3334    4.7752   14.3098    4.7247   14.2705    4.7595   14.2978    4.7939   14.3254
  4.000   18.5954   18.0810   18.7608   18.2370   18.7055   18.1848   18.6159   18.0995   18.6780   18.1587   18.7399   18.2183
  4.100   35.9767   30.2897   36.2391   30.7157   36.1515   30.5731   36.0082   30.3418   36.1078   30.5016   36.2073   30.6628
  4.200   52.6412   69.3070   52.5274   70.6568   52.5675   70.2055   52.6230   69.4752   52.5876   69.9793   52.5477   70.4869
  4.300  -10.4322  135.2832  -13.2965  135.0292  -12.3477  135.1201  -10.8084  135.2388  -11.8688  135.1681  -12.9262  135.0803
  4.400  -74.2596   69.0175  -74.1277   67.5054  -74.1625   68.0063  -74.2313   68.8054  -74.1924   68.2535  -74.1481   67.7145
  4.500  -58.4585   29.2815  -58.0288   28.8247  -58.1781   28.9884  -58.3877   29.2140  -58.2330   29.0558  -58.1070   28.8973
  4.600  -42.4459   16.4741  -42.1902   16.3015  -42.2836   16.3556  -42.3936   16.4538  -42.3306   16.4067  -42.2369   16.3198
  4.700  -30.5979   12.2792  -30.4358   12.1608  -30.4964   12.1889  -30.5695   12.2909  -30.5460   12.2047  -30.4665   12.1718
  4.800  -20.7994   13.1279  -20.6023   12.9445  -20.6478   12.9659  -20.9085   13.0736  -20.6857   12.9498  -20.6276   12.9552
  4.900  -14.7440   21.5296  -14.0905   22.0696  -14.1593   22.0838  -14.0406   21.4354  -14.0995   22.0471  -14.1380   22.0761
  5.000  -27.0706   31.9258  -27.8926   30.5794  -27.8398   30.5510  -28.2721   31.9128  -28.0519   30.6344  -27.8430   30.5613
  5.100  -36.1699   16.3993  -35.6852   16.8003  -35.7254   16.8052  -35.5320   16.2340  -35.6715   16.7879  -35.7196   16.7962
  5.200  -30.5430    7.9256  -30.6258    8.0707  -30.6416    8.0677  -30.5839    8.1649  -30.6464    8.0790  -30.6352    8.0640
  5.300  -25.5653    4.9760  -25.6319    4.9297  -25.6450    4.9295  -25.6724    4.9615  -25.6535    4.9328  -25.6406    4.9273
  5.400  -21.8993    3.6648  -21.8489    3.6025  -21.8613    3.6026  -21.8872    3.6126  -21.8692    3.6036  -21.8586    3.6009
  5.500  -18.8570    3.0654  -18.7904    3.0503  -18.8027    3.0499  -18.8252    3.0527  -18.8103    3.0498  -18.8015    3.0483
  5.600  -16.1375    3.1272  -16.0709    3.1364  -16.0838    3.1346  -16.1051    3.1320  -16.0916    3.1332  -16.0841    3.1327
  5.700  -13.7292    4.4837  -13.6657    4.5316  -13.6799    4.5262  -13.6980    4.5117  -13.6879    4.5213  -13.6821    4.5228
  5.800  -14.8675    7.5516  -14.8871    7.6218  -14.8969    7.6067  -14.8839    7.5931  -14.8982    7.5979  -14.8994    7.5969
  5.900  -17.2237    4.5583  -17.2383    4.5649  -17.2352    4.5550  -17.2371    4.5629  -17.2335    4.5519  -17.2286    4.5471
  6.000  -15.5816    2.3659  -15.5843    2.3694  -15.5817    2.3658  -15.5876    2.3685  -15.5809    2.3646  -15.5757    2.3627
  6.100  -13.9717    1.5759  -13.9712    1.5781  -13.9700    1.5766  -13.9754    1.5777  -13.9698    1.5761  -13.9655    1.5751
  6.200  -12.6868    1.2133  -12.6846    1.2148  -12.6843    1.2141  -12.6891    1.2146  -12.6844    1.2138  -12.6807    1.2131
  6.300  -11.6215    1.0135  -11.6181    1.0149  -11.6182    1.0146  -11.6227    1.0146  -11.6185    1.0143  -11.6153    1.0139
  6.400  -10.6979    0.9018  -10.6933    0.9040  -10.6936    0.9039  -10.6981    0.9033  -10.6942    0.9036  -10.6914    0.9033
  6.500   -9.8684    0.8790   -9.8632    0.8847   -9.8636    0.8848   -9.8678    0.8823   -9.8642    0.8842   -9.8618    0.8843
  6.600   -9.1972    1.0344   -9.2030    1.0474   -9.2038    1.0477   -9.2016    1.0415   -9.2033    1.0465   -9.2023    1.0470
  6.700   -8.9659    1.0043   -8.9734    0.9919   -8.9742    0.9915   -8.9718    0.9990   -8.9737    0.9928   -8.9725    0.9908
  6.800   -8.4423    0.7073   -8.4371    0.7015   -8.4376    0.7014   -8.4417    0.7048   -8.4383    0.7019   -8.4361    0.7010
  6.900   -7.8581    0.5823   -7.8530    0.5805   -7.8535    0.5805   -7.8572    0.5817   -7.8542    0.5807   -7.8523    0.5802
  7.000   -7.3233    0.5236   -7.3190    0.5230   -7.3194    0.5231   -7.3226    0.5235   -7.3200    0.5232   -7.3183    0.5229
  7.100   -6.8254    0.4957   -6.8212    0.4958   -6.8216    0.4960   -6.8246    0.4959   -6.8221    0.4960   -6.8207    0.4958
  7.200   -6.3465    0.4984   -6.3422    0.4996   -6.3424    0.4999   -6.3454    0.4991   -6.3429    0.4998   -6.3416    0.4998
  7.300   -5.8733    0.5673   -5.8691    0.5721   -5.8692    0.5728   -5.8721    0.5695   -5.8697    0.5724   -5.8685    0.5729
  7.400   -5.5067    0.8249   -5.5153    0.8362   -5.5161    0.8379   -5.5106    0.8300   -5.5152    0.8369   -5.5159    0.8383
  7.500   -5.6035    0.8528   -5.6106    0.8345   -5.6123    0.8345   -5.6072    0.8454   -5.6118    0.8366   -5.6124    0.8341
  7.600   -5.3016    0.5466   -5.2934    0.5384   -5.2942    0.5384   -5.2985    0.5433   -5.2953    0.5393   -5.2941    0.5381
  7.700   -4.8793    0.4407   -4.8717    0.4382   -4.8724    0.4382   -4.8763    0.4398   -4.8734    0.4385   -4.8725    0.4380
  7.800   -4.4746    0.4123   -4.4678    0.4117   -4.4685    0.4118   -4.4717    0.4122   -4.4693    0.4119   -4.4686    0.4117
  7.900   -4.0733    0.4227   -4.0664    0.4237   -4.0670    0.4238   -4.0703    0.4232   -4.0679    0.4237   -4.0673    0.4236
  8.000   -3.6514    0.4795   -3.6435    0.4834   -3.6440    0.4835   -3.6477    0.4812   -3.6449    0.4831   -3.6444    0.4834
  8.100   -3.1848    0.6464   -3.1763    0.6596   -3.1767    0.6599   -3.1806    0.6518   -3.1777    0.6584   -3.1775    0.6600
  8.200   -2.7997    1.1543   -2.8211    1.1907   -2.8221    1.1916   -2.8061    1.1692   -2.8195    1.1876   -2.8241    1.1921
  8.300   -3.3155    1.4869   -3.3554    1.4281   -3.3565    1.4269   -3.3310    1.4658   -3.3526    1.4337   -3.3588    1.4240
  8.400   -3.1574    0.9016   -3.1263    0.8711   -3.1259    0.8706   -3.1444    0.8903   -3.1294    0.8739   -3.1262    0.8689
  8.500   -2.5358    0.7694   -2.5023    0.7667   -2.5016    0.7670   -2.5211    0.7692   -2.5054    0.7672   -2.5025    0.7659
  8.600   -1.8262    0.9411   -1.7911    0.9610   -1.7902    0.9620   -1.8099    0.9502   -1.7941    0.9598   -1.7919    0.9609
  8.700   -1.0194    1.5839   -1.0043    1.6620   -1.0039    1.6654   -1.0092    1.6175   -1.0053    1.6567   -1.0070    1.6636
  8.800   -1.0489    3.0968   -1.2436    3.1032   -1.2503    3.1041   -1.1248    3.1115   -1.2294    3.1057   -1.2547    3.0974
  8.900   -1.6997    2.9215   -1.6274    2.7716   -1.6254    2.7688   -1.6736    2.8636   -1.6336    2.7836   -1.6231    2.7618
  9.000   -0.5604    3.9931   -0.4397    4.0200   -0.4372    4.0247   -0.5118    4.0104   -0.4495    4.0224   -0.4347    4.0187
  9.100   -2.9739    7.6406   -3.0130    7.7330   -3.0241    7.7363   -3.0012    7.6842   -3.0218    7.7272   -3.0148    7.7323
  9.200   -7.0296    4.3888   -7.0482    4.3750   -7.0494    4.3690   -7.0413    4.3797   -7.0476    4.3693   -7.0458    4.3711
  9.300   -6.1316    1.8742   -6.1314    1.8702   -6.1304    1.8683   -6.1332    1.8717   -6.1302    1.8683   -6.1286    1.8687
  9.400   -5.1076    1.0442   -5.1063    1.0435   -5.1058    1.0427   -5.1086    1.0438   -5.1058    1.0427   -5.1042    1.0427
  9.500   -4.3543    0.7226   -4.3529    0.7226   -4.3527    0.7223   -4.3552    0.7227   -4.3528    0.7222   -4.3512    0.7222
  9.600   -3.7548    0.5955   -3.7532    0.5958   -3.7532    0.5956   -3.7555    0.5957   -3.7533    0.5955   -3.7518    0.5955
  9.700   -3.2151    0.5866   -3.2132    0.5872   -3.2133    0.5871   -3.2156    0.5870   -3.2135    0.5870   -3.2121    0.5870
  9.800   -2.6612    0.7302   -2.6587    0.7317   -2.6589    0.7316   -2.6613    0.7310   -2.6592    0.7314   -2.6578    0.7314
  9.900   -2.0945    1.2723   -2.0921    1.2766   -2.0925    1.2765   -2.0946    1.2743   -2.0928    1.2760   -2.0915    1.2762
 10.000   -2.5469    2.5082   -2.5528    2.5129   -2.5537    2.5120   -2.5507    2.5105   -2.5532    2.5115   -2.5524    2.5115
