# Macroscopic dielectric function obtained with the BS equation.
#  RPA L0 with KS energies and KS wavefunctions     LOCAL FIELD EFFECTS INCLUDED
# RESONANT-ONLY calculation
# Coulomb term constructed with full W(G1,G2)
# Scissor operator energy =  0.8000 [eV]
# Tolerance =  0.0200 0.0200
# npweps  = 51
# npwwfn  = 137
# nbands  = 8
# loband  = 2
# nkibz   = 8
# nkbz    = 8
# Lorentzian broadening =  0.1000 [eV]
# List of q-points for the optical limit:
# q =  0.938821, 0.000000, 0.000000, [Reduced coords] 
# q =  0.000000, 0.938821, 0.000000, [Reduced coords] 
# q =  0.000000, 0.000000, 0.938821, [Reduced coords] 
# q =  0.000000, 0.813043, 0.813043, [Reduced coords] 
# q =  0.813043, 0.000000, 0.813043, [Reduced coords] 
# q =  0.813043, 0.813043, 0.000000, [Reduced coords] 
# omega [eV]    RE(eps(q=1)) IM(eps(q=1) RE(eps(q=2) ) ... 
  0.000   18.9683    0.0000   18.6569    0.0000   18.1340    0.0000   16.5618    0.0000   17.0024    0.0000   17.2724    0.0000
  0.100   18.9802    0.0238   18.6684    0.0232   18.1451    0.0223   16.5716    0.0196   17.0125    0.0204   17.2828    0.0209
  0.200   19.0158    0.0478   18.7032    0.0467   18.1785    0.0447   16.6009    0.0393   17.0431    0.0410   17.3142    0.0420
  0.300   19.0756    0.0722   18.7616    0.0705   18.2345    0.0676   16.6501    0.0594   17.0944    0.0619   17.3667    0.0635
  0.400   19.1600    0.0972   18.8440    0.0949   18.3135    0.0910   16.7196    0.0800   17.1668    0.0834   17.4409    0.0855
  0.500   19.2698    0.1231   18.9512    0.1202   18.4162    0.1153   16.8099    0.1012   17.2610    0.1056   17.5374    0.1082
  0.600   19.4059    0.1502   19.0841    0.1466   18.5436    0.1405   16.9218    0.1234   17.3777    0.1287   17.6570    0.1319
  0.700   19.5697    0.1786   19.2439    0.1744   18.6968    0.1671   17.0563    0.1466   17.5180    0.1530   17.8009    0.1568
  0.800   19.7626    0.2088   19.4323    0.2038   18.8773    0.1952   17.2146    0.1712   17.6832    0.1787   17.9702    0.1832
  0.900   19.9865    0.2410   19.6508    0.2352   19.0867    0.2253   17.3982    0.1975   17.8748    0.2062   18.1667    0.2114
  1.000   20.2438    0.2758   19.9019    0.2692   19.3271    0.2577   17.6089    0.2257   18.0948    0.2357   18.3922    0.2417
  1.100   20.5371    0.3136   20.1882    0.3060   19.6012    0.2929   17.8487    0.2562   18.3454    0.2677   18.6492    0.2746
  1.200   20.8697    0.3550   20.5127    0.3463   19.9118    0.3314   18.1204    0.2896   18.6292    0.3027   18.9404    0.3105
  1.300   21.2456    0.4007   20.8794    0.3909   20.2626    0.3738   18.4269    0.3264   18.9496    0.3413   19.2691    0.3502
  1.400   21.6693    0.4516   21.2928    0.4405   20.6579    0.4211   18.7718    0.3671   19.3104    0.3842   19.6393    0.3942
  1.500   22.1467    0.5089   21.7583    0.4963   21.1029    0.4741   19.1595    0.4128   19.7162    0.4322   20.0558    0.4436
  1.600   22.6845    0.5738   22.2828    0.5595   21.6038    0.5342   19.5953    0.4643   20.1726    0.4865   20.5243    0.4995
  1.700   23.2911    0.6481   22.8742    0.6319   22.1683    0.6029   20.0857    0.5231   20.6865    0.5485   21.0521    0.5633
  1.800   23.9768    0.7342   23.5426    0.7156   22.8059    0.6822   20.6384    0.5907   21.2663    0.6200   21.6477    0.6369
  1.900   24.7544    0.8348   24.3005    0.8135   23.5283    0.7750   21.2633    0.6695   21.9224    0.7033   22.3218    0.7228
  2.000   25.6401    0.9541   25.1635    0.9296   24.3501    0.8846   21.9726    0.7623   22.6678    0.8017   23.0880    0.8242
  2.100   26.6543    1.0974   26.1516    1.0690   25.2900    1.0162   22.7817    0.8731   23.5192    0.9194   23.9634    0.9456
  2.200   27.8239    1.2723   27.2909    1.2392   26.3725    1.1764   23.7107    1.0075   24.4980    1.0625   24.9701    1.0931
  2.300   29.1842    1.4898   28.6156    1.4507   27.6295    1.3753   24.7859    1.1735   25.6325    1.2396   26.1374    1.2757
  2.400   30.7829    1.7659   30.1723    1.7195   29.1044    1.6273   26.0426    1.3827   26.9608    1.4633   27.5047    1.5066
  2.500   32.6865    2.1259   32.0257    2.0700   30.8573    1.9550   27.5297    1.6532   28.5357    1.7534   29.1265    1.8059
  2.600   34.9901    2.6101   34.2688    2.5419   32.9742    2.3949   29.3167    2.0138   30.4324    2.1413   31.0803    2.2061
  2.700   37.8357    3.2879   37.0401    3.2033   35.5833    3.0092   31.5064    2.5137   32.7627    2.6810   33.4814    2.7628
  2.800   41.4444    4.2868   40.5560    4.1801   38.8836    3.9122   34.2578    3.2427   35.6999    3.4714   36.5086    3.5778
  2.900   46.1795    5.8648   45.1730    5.7280   43.2018    5.3348   37.8300    4.3811   39.5273    4.7117   40.4536    4.8559
  3.000   52.6705    8.6134   51.5099    8.4375   49.1040    7.8044   42.6688    6.3394   44.7344    6.8577   45.8203    7.0656
  3.100   62.0182   14.1384   60.6451   13.9257   57.5830   12.7464   49.5490   10.2245   52.1746   11.1440   53.4867   11.4764
  3.200   75.3514   27.8049   73.5781   27.6360   69.7388   24.9084   59.2612   19.7052   62.7321   21.6885   64.3714   22.3379
  3.300   80.7590   65.1974   77.4799   64.4889   75.4662   58.9957   63.8783   44.9055   67.4140   50.5238   68.8082   52.4824
  3.400   35.5935   90.9723   32.7617   88.4556   33.9767   82.0923   36.9626   66.5611   31.9501   70.5736   32.8105   68.6302
  3.500   13.6556   70.7638   10.0603   66.4724   10.6084   64.9614   14.5954   54.1406   16.0674   53.5998   21.0380   55.0321
  3.600    3.3058   59.8043    3.9009   53.3068    4.4726   50.9302    9.3652   40.7669   12.8421   44.8519   17.7864   52.0776
  3.700   11.1832   51.2535   14.2681   43.2255   13.4021   38.1874   20.6566   33.4708   21.7481   42.6939   21.1616   53.6921
  3.800    4.4162   58.3114   15.4538   58.3534   22.1157   52.3417   25.5271   48.3703   15.3574   56.6775    3.3243   61.9784
  3.900   -3.8413   50.7448   -1.5600   55.5690    2.9599   56.1426    9.9810   54.0963   -0.0557   49.4637   -7.1677   47.0610
  4.000   -2.8657   42.1380   -1.8789   44.7502    3.1226   45.5142    4.0062   47.1940    1.8493   41.4039   -1.6577   36.3723
  4.100    3.9038   41.0905    2.4508   43.9126    2.6885   49.9227    1.4173   43.4397    2.9119   41.2873    4.2624   38.0470
  4.200    5.6783   50.9145    2.3897   49.8787    0.2840   49.9093    2.6050   44.3517    3.7485   43.6556    4.2373   42.4045
  4.300    2.5846   61.0511    1.7088   59.9204    1.8104   58.0684    2.8191   51.0934    4.4323   52.3737    4.4736   51.3087
  4.400  -20.7391   64.9714  -21.6105   63.1703  -22.1162   62.8354  -13.2284   54.7558  -14.0184   54.1082  -11.0588   55.8240
  4.500  -34.1390   48.8939  -35.6517   45.4694  -37.1003   45.7003  -21.8778   40.6009  -21.7355   42.5202  -19.6858   43.9111
  4.600  -32.0364   42.3223  -29.3654   34.0339  -30.6348   29.0686  -16.9677   33.5974  -18.2029   41.1455  -20.1528   43.7660
  4.700  -39.8503   33.2542  -28.4432   34.6871  -22.1621   27.3440  -16.7779   42.3789  -25.7608   37.1184  -30.7808   43.6119
  4.800  -36.5283   19.1826  -35.7767   24.4459  -29.0071   31.1014  -31.2605   35.3203  -32.5858   32.1684  -36.2415   26.1776
  4.900  -30.2268   14.6585  -29.4790   16.4777  -29.6436   19.1237  -33.1525   21.6458  -31.3437   19.8174  -31.5954   17.6296
  5.000  -25.1570   10.5120  -25.5118   12.5687  -25.2762   14.5678  -26.4017   14.9122  -26.2958   13.2867  -25.8485   12.8165
  5.100  -19.4467   11.0780  -20.3561   12.0124  -20.8077   13.8135  -22.5991   11.9914  -20.8569   12.2599  -21.7065   10.4457
  5.200  -18.6017   12.5209  -18.0692   13.0669  -19.5880   13.1198  -18.8315   12.4587  -18.3643   12.0136  -17.7486   11.4851
  5.300  -19.2425   13.6198  -20.7325   14.0435  -20.2278   14.1134  -19.0473   11.0746  -19.1956   12.7586  -18.0040   10.6936
  5.400  -19.0897   10.0348  -19.1341    9.6295  -19.7282    9.7052  -17.5324    9.3291  -17.3249    9.1698  -15.8721   10.9070
  5.500  -17.5286   11.1630  -17.5576   10.8915  -17.4608   10.1920  -14.2757    9.1634  -15.1729   11.2282  -15.6935   11.1733
  5.600  -19.0445    8.7750  -18.3590    8.5042  -18.1595    7.9702  -16.1035   11.2403  -17.6481    9.3771  -18.4824   10.5270
  5.700  -18.1349    6.9775  -17.4933    7.5047  -16.0268    7.1671  -15.9396    7.9555  -16.0205    7.9568  -16.9331    6.7481
  5.800  -16.1541    4.9208  -15.9998    5.4702  -15.3769    6.1718  -15.5528    7.6812  -15.5464    6.2110  -15.7220    6.2604
  5.900  -14.4232    5.3693  -14.7292    5.6501  -14.5409    6.3166  -14.4785    5.8833  -13.8773    6.2589  -14.1685    4.6898
  6.000  -14.1725    4.9848  -13.9127    4.9333  -13.9737    5.0333  -14.5166    5.8781  -14.1887    5.3517  -12.8557    5.4982
  6.100  -14.2853    4.2441  -14.0770    4.7247  -13.6514    5.2354  -13.7762    3.6369  -13.6801    4.6702  -13.3247    4.6404
  6.200  -12.9490    2.8108  -13.0081    3.1936  -13.2940    3.5819  -12.1318    3.2279  -12.8615    3.0718  -12.8822    3.7953
  6.300  -11.6370    2.9912  -12.0441    3.3363  -12.3830    3.1912  -11.6163    2.7910  -11.4878    2.8328  -11.8181    2.7026
  6.400  -11.6504    2.5802  -11.8943    2.3411  -11.7063    2.1148  -10.9103    2.2821  -11.1936    2.2809  -11.1467    2.4706
  6.500  -10.8079    1.9106  -10.6822    1.6450  -10.4415    1.6543  -10.0100    1.5216  -10.0970    1.5950  -10.3378    1.6346
  6.600   -9.9809    1.3724   -9.7960    1.4490   -9.6781    1.5036   -8.8996    1.2192   -9.2199    1.3906   -9.2853    1.3567
  6.700   -8.9737    1.1210   -8.9079    1.1692   -8.8022    1.1501   -8.0357    1.1869   -8.3502    1.1020   -8.5433    1.1528
  6.800   -8.1493    1.1737   -8.0816    1.1838   -7.8735    1.0954   -7.2527    1.0647   -7.4566    1.0715   -7.6820    0.9866
  6.900   -7.5815    1.0855   -7.4562    1.0840   -7.2043    1.1804   -6.4269    1.1699   -6.8322    1.1449   -6.9071    1.0626
  7.000   -6.7806    1.0593   -6.6261    1.1020   -6.4478    1.1334   -5.8818    1.2797   -6.0917    1.0768   -6.3672    1.0579
  7.100   -6.1675    1.3624   -6.0270    1.4240   -5.6528    1.4725   -5.0767    1.4126   -5.2843    1.3749   -5.5764    1.0612
  7.200   -5.7138    1.3503   -5.4685    1.4590   -5.2408    1.7471   -4.6078    1.8730   -4.9227    1.6986   -4.7922    1.4912
  7.300   -4.8974    1.7419   -4.7289    2.1100   -4.3947    2.3751   -3.8105    2.1102   -4.1059    2.0528   -4.5819    1.9292
  7.400   -4.7980    2.3716   -4.9338    2.5369   -4.9992    3.5282   -3.2000    3.8230   -4.1584    3.2267   -3.9265    2.4041
  7.500   -4.3483    3.0430   -4.2747    3.1022   -5.0389    3.3785   -5.1118    4.4014   -4.1780    3.3559   -4.2866    3.1855
  7.600   -5.7604    3.7213   -5.6718    4.1788   -6.2915    4.0286   -5.1965    4.3150   -5.2300    4.6285   -4.1139    3.7908
  7.700   -5.6106    2.7300   -6.0145    3.1905   -6.5177    2.3840   -6.7236    3.5769   -6.0596    3.1836   -5.8286    4.0151
  7.800   -5.9125    3.3680   -6.6529    2.8143   -5.8515    2.2406   -6.1790    2.5025   -5.9968    3.2113   -5.8559    3.2207
  7.900   -6.5653    2.0283   -6.1886    1.6340   -5.9703    1.7334   -6.1988    1.9600   -6.4056    1.9995   -6.4643    2.3714
  8.000   -5.7338    1.3015   -5.4593    1.5280   -5.2219    1.3101   -5.4834    1.2238   -5.5392    1.3021   -5.7305    1.3864
  8.100   -5.1992    1.2755   -5.2986    1.2985   -4.7987    1.5485   -4.6389    1.1670   -4.9321    1.3350   -4.9852    1.3123
  8.200   -4.7551    1.0332   -4.6330    1.0810   -4.5324    1.3331   -4.2777    1.5548   -4.5442    1.1482   -4.7317    1.1887
  8.300   -4.1446    1.1812   -4.1583    1.4493   -3.9736    1.6836   -4.0408    1.4440   -3.8779    1.3597   -4.0769    1.0715
  8.400   -4.0139    1.3321   -4.1768    1.3769   -4.3014    1.8460   -3.7027    1.9684   -4.0241    1.8487   -3.5784    1.5644
  8.500   -3.4301    1.3894   -3.5371    1.4789   -3.8909    1.7836   -4.0489    1.8673   -3.8198    1.5235   -3.7369    1.7054
  8.600   -3.3006    2.2838   -3.6801    2.2587   -4.3125    2.0632   -3.7923    2.1003   -3.5921    2.1103   -3.4632    2.0569
  8.700   -3.8208    2.0380   -3.8811    1.7824   -4.0604    1.4268   -4.3103    1.7890   -4.1301    1.7795   -3.9928    1.9537
  8.800   -3.3825    2.3942   -3.4252    2.2288   -3.4632    1.7916   -3.7155    1.4637   -3.5621    1.6678   -3.5255    1.8995
  8.900   -4.3546    2.5087   -4.2550    2.2487   -4.0767    2.0512   -3.6552    2.1154   -3.9246    2.1293   -4.1200    2.2364
  9.000   -4.0494    1.9710   -3.8456    1.8502   -3.7566    1.5847   -4.1485    1.6226   -3.8965    1.5447   -3.9849    1.5130
  9.100   -4.4242    2.1677   -4.1981    2.2467   -3.7372    2.1742   -3.7749    1.5525   -3.7199    1.9062   -3.6602    1.8597
  9.200   -4.3177    1.4265   -4.2435    1.5444   -4.2682    1.6148   -4.0708    1.3662   -4.2100    1.4515   -4.2179    1.5715
  9.300   -4.0247    1.5516   -4.0624    1.7090   -3.9068    1.4711   -3.6773    1.0281   -3.7860    1.1603   -3.8943    1.2400
  9.400   -4.1935    1.1553   -4.3533    1.1770   -4.1633    1.2217   -3.6157    1.2050   -3.8951    1.1554   -3.9592    1.0349
  9.500   -3.7132    0.9322   -3.8720    0.7872   -3.7664    0.7736   -3.5748    0.8226   -3.6677    0.6993   -3.5906    0.6723
  9.600   -3.6201    1.1229   -3.5295    0.8389   -3.3253    0.8107   -3.1895    0.7913   -3.2277    0.6200   -3.1665    0.6940
  9.700   -3.5105    0.8122   -3.3057    0.7332   -3.1910    0.8535   -3.1898    0.8384   -3.0179    0.7666   -3.0177    0.7817
  9.800   -3.0612    0.8733   -2.8880    0.9097   -2.8046    0.9739   -2.9194    0.6741   -2.8055    0.7195   -2.6731    0.8598
  9.900   -3.1302    1.2654   -3.0552    1.3167   -3.0016    1.5504   -2.6879    0.9194   -2.5361    1.0765   -2.7248    1.4307
 10.000   -3.1665    1.0281   -3.0554    1.1356   -3.3269    1.1209   -2.8111    0.8821   -2.9900    1.2004   -3.1487    1.1392
